-860
-855
-851
-834
-809
-793
-789
-772
-718
-639
-567
-502
-402
-215
53
351
636
918
1238
1605
1986
2343
2671
2980
3250
3426
3468
3376
3177
2880
2455
1880
1184
432
-309
-1003
-1635
-2196
-2669
-3041
-3306
-3462
-3501
-3432
-3292
-3128
-2970
-2808
-2613
-2372
-2120
-1913
-1777
-1682
-1576
-1437
-1305
-1228
-1213
-1210
-1173
-1103
-1044
-1030
-1046
-1060
-1054
-1037
-1024
-1019
-1012
-994
-971
-954
-952
-955
-950
-937
-933
-951
-973
-955
-879
-781
-711
-682
-662
-613
-544
-492
-485
-510
-538
-550
-552
-557
-566
-570
-565
-557
-556
-564
-565
-550
-532
-539
-577
-603
-562
-456
-363
-356
-421
-475
-463
-422
-431
-513
-614
-668
-668
-646
-624
-600
-583
-603
-674
-762
-819
-835
-853
-910
-994
-1054
-1059
-1020
-973
-940
-923
-917
-920
-930
-940
-944
-944
-941
-935
-925
-914
-906
-897
-880
-861
-849
-847
-840
-819
-792
-780
-777
-753
-691
-612
-544
-480
-370
-170
106
402
686
976
1306
1679
2057
2408
2734
3040
3297
3451
3466
3353
3140
2826
2377
1780
1070
319
-413
-1096
-1721
-2274
-2734
-3086
-3331
-3467
-3490
-3409
-3261
-3090
-2927
-2760
-2560
-2315
-2066
-1869
-1743
-1655
-1547
-1407
-1281
-1216
-1208
-1202
-1155
-1081
-1028
-1020
-1034
-1042
-1031
-1016
-1009
-1005
-994
-976
-957
-950
-952
-951
-938
-919
-915
-933
-948
-918
-837
-742
-679
-655
-631
-579
-512
-468
-468
-495
-521
-531
-531
-533
-540
-544
-538
-529
-527
-532
-533
-520
-506
-516
-551
-567
-516
-408
-325
-330
-398
-445
-426
-387
-404
-492
-591
-638
-631
-603
-576
-550
-539
-570
-646
-731
-780
-796
-821
-885
-969
-1022
-1021
-981
-935
-902
-886
-881
-886
-896
-903
-904
-902
-899
-893
-883
-873
-864
-853
-836
-820
-814
-815
-804
-778
-755
-752
-755
-728
-657
-572
-509
-447
-327
-109
178
473
749
1036
1373
1752
2129
2474
2797
3101
3349
3481
3472
3341
3117
2789
2315
1689
964
215
-507
-1181
-1799
-2339
-2778
-3108
-3335
-3457
-3467
-3376
-3223
-3056
-2899
-2729
-2519
-2268
-2024
-1842
-1727
-1636
-1516
-1371
-1252
-1199
-1195
-1183
-1129
-1057
-1012
-1010
-1026
-1030
-1019
-1008
-1004
-1002
-990
-966
-944
-935
-939
-941
-932
-917
-916
-934
-943
-906
-820
-727
-671
-649
-624
-568
-501
-462
-468
-500
-527
-535
-530
-529
-536
-544
-543
-533
-525
-525
-524
-515
-505
-517
-548
-555
-497
-392
-320
-335
-405
-444
-419
-384
-412
-506
-600
-641
-631
-605
-582
-561
-555
-591
-671
-755
-800
-812
-837
-901
-981
-1028
-1019
-974
-927
-897
-884
-882
-888
-898
-908
-913
-917
-916
-909
-898
-888
-881
-871
-852
-832
-823
-823
-815
-794
-774
-769
-764
-728
-654
-574
-510
-437
-299
-67
224
515
792
1086
1430
1809
2182
2525
2848
3148
3381
3491
3460
3311
3070
2719
2219
1571
836
88
-624
-1284
-1886
-2409
-2833
-3152
-3365
-3470
-3461
-3354
-3194
-3029
-2874
-2701
-2481
-2222
-1982
-1811
-1707
-1617
-1495
-1351
-1242
-1201
-1199
-1179
-1118
-1048
-1013
-1021
-1038
-1040
-1026
-1015
-1012
-1008
-992
-967
-949
-947
-954
-954
-940
-926
-933
-957
-961
-912
-816
-725
-674
-653
-622
-562
-498
-466
-478
-509
-532
-540
-540
-544
-552
-554
-547
-539
-539
-545
-541
-522
-510
-529
-568
-572
-499
-388
-327
-361
-438
-466
-429
-394
-434
-535
-625
-654
-637
-610
-587
-566
-564
-605
-688
-768
-808
-820
-852
-922
-1000
-1039
-1023
-980
-940
-916
-904
-900
-904
-915
-926
-933
-934
-929
-918
-908
-902
-896
-879
-853
-834
-830
-831
-816
-784
-760
-757
-753
-711
-633
-554
-495
-419
-268
-23
272
560
838
1142
1497
1879
2245
2581
2901
3195
3415
3503
3451
3288
3034
2662
2138
1474
735
-7
-712
-1367
-1959
-2468
-2876
-3178
-3378
-3467
-3441
-3321
-3159
-2996
-2840
-2660
-2432
-2176
-1951
-1796
-1697
-1602
-1472
-1333
-1236
-1203
-1199
-1170
-1104
-1038
-1009
-1017
-1030
-1030
-1016
-1006
-999
-990
-972
-951
-936
-933
-935
-933
-921
-914
-926
-947
-942
-883
-785
-698
-653
-632
-597
-534
-471
-443
-457
-488
-508
-511
-508
-511
-521
-526
-520
-511
-510
-517
-515
-499
-490
-513
-550
-543
-459
-349
-303
-351
-426
-445
-404
-380
-436
-543
-624
-642
-618
-589
-565
-545
-547
-598
-684
-759
-794
-809
-850
-927
-1001
-1029
-1004
-953
-909
-883
-870
-868
-873
-882
-890
-895
-897
-894
-885
-875
-869
-862
-844
-818
-801
-800
-800
-783
-753
-735
-739
-734
-688
-609
-534
-477
-393
-224
36
332
615
890
1202
1566
1949
2311
2642
2960
3248
3450
3516
3445
3269
3002
2612
2068
1390
648
-91
-790
-1438
-2021
-2516
-2907
-3194
-3378
-3451
-3409
-3281
-3117
-2959
-2804
-2618
-2381
-2122
-1902
-1754
-1657
-1553
-1417
-1281
-1196
-1173
-1167
-1131
-1065
-1007
-989
-1001
-1012
-1010
-1002
-997
-991
-979
-959
-937
-922
-918
-917
-913
-902
-896
-909
-930
-922
-861
-766
-685
-644
-624
-586
-521
-464
-446
-468
-501
-518
-519
-518
-525
-534
-534
-525
-516
-518
-522
-512
-494
-492
-522
-555
-534
-441
-338
-308
-363
-429
-432
-386
-374
-442
-550
-623
-632
-608
-583
-564
-548
-558
-614
-701
-770
-795
-806
-848
-926
-997
-1017
-986
-935
-895
-876
-869
-867
-872
-882
-892
-898
-898
-890
-877
-867
-860
-850
-832
-810
-799
-801
-798
-774
-743
-731
-738
-729
-675
-589
-514
-457
-366
-186
82
380
664
944
1262
1631
2012
2365
2692
3008
3291
3479
3525
3436
3246
2966
2556
1988
1291
541
-196
-888
-1528
-2102
-2584
-2959
-3230
-3399
-3457
-3402
-3265
-3097
-2936
-2776
-2583
-2342
-2086
-1877
-1740
-1646
-1538
-1400
-1271
-1198
-1181
-1173
-1131
-1061
-1008
-996
-1012
-1022
-1016
-1001
-991
-985
-977
-961
-941
-926
-921
-923
-919
-908
-900
-910
-928
-915
-848
-748
-668
-631
-613
-574
-510
-455
-440
-465
-499
-517
-517
-512
-517
-526
-526
-513
-502
-504
-511
-504
-486
-484
-516
-549
-522
-421
-318
-298
-362
-429
-425
-379
-376
-454
-562
-625
-626
-600
-578
-558
-540
-549
-610
-701
-769
-792
-803
-849
-932
-1004
-1019
-981
-929
-893
-878
-872
-868
-870
-882
-897
-902
-897
-885
-876
-874
-874
-863
-839
-816
-808
-811
-805
-777
-748
-740
-748
-731
-669
-585
-518
-462
-363
-170
105
401
683
967
1293
1663
2040
2391
2721
3039
3312
3480
3503
3398
3199
2904
2473
1884
1175
426
-303
-987
-1619
-2182
-2653
-3014
-3272
-3427
-3469
-3399
-3252
-3083
-2926
-2767
-2571
-2324
-2068
-1867
-1737
-1643
-1529
-1388
-1262
-1195
-1180
-1167
-1121
-1055
-1010
-1003
-1015
-1021
-1014
-1003
-995
-986
-971
-952
-933
-923
-922
-923
-919
-909
-906
-921
-937
-916
-841
-741
-665
-632
-614
-573
-507
-453
-443
-473
-509
-524
-521
-518
-527
-539
-537
-522
-511
-516
-525
-517
-497
-495
-527
-555
-519
-414
-316
-303
-369
-427
-416
-371
-375
-457
-561
-617
-612
-585
-563
-544
-530
-547
-612
-701
-762
-780
-794
-844
-925
-986
-992
-952
-904
-873
-859
-852
-851
-858
-871
-881
-883
-877
-869
-864
-863
-860
-848
-826
-805
-796
-798
-791
-769
-746
-740
-739
-712
-647
-567
-504
-441
-324
-115
163
454
734
1023
1358
1730
2101
2448
2779
3094
3356
3505
3512
3397
3189
2880
2429
1824
1110
362
-364
-1045
-1671
-2223
-2678
-3027
-3276
-3420
-3448
-3367
-3214
-3046
-2891
-2728
-2524
-2273
-2020
-1823
-1697
-1603
-1487
-1347
-1224
-1162
-1152
-1142
-1096
-1031
-987
-982
-996
-1005
-1000
-989
-982
-974
-959
-938
-917
-906
-905
-906
-897
-883
-882
-899
-914
-888
-807
-709
-641
-613
-590
-540
-469
-419
-418
-450
-482
-491
-485
-486
-500
-514
-509
-490
-478
-486
-495
-487
-469
-473
-509
-534
-489
-381
-294
-299
-372
-422
-399
-355
-375
-468
-569
-612
-600
-573
-552
-530
-514
-537
-610
-699
-753
-765
-783
-847
-938
-998
-995
-948
-899
-872
-860
-851
-848
-856
-869
-878
-877
-870
-863
-859
-855
-846
-829
-806
-789
-786
-787
-773
-745
-723
-719
-717
-683
-611
-532
-474
-410
-285
-66
217
508
787
1084
1428
1804
2174
2517
2842
3151
3402
3535
3529
3405
3185
2855
2377
1751
1029
281
-444
-1124
-1743
-2281
-2720
-3059
-3295
-3421
-3424
-3320
-3159
-2996
-2842
-2671
-2452
-2194
-1949
-1769
-1652
-1556
-1437
-1300
-1188
-1136
-1126
-1108
-1056
-992
-951
-946
-958
-964
-957
-947
-937
-927
-913
-894
-875
-863
-860
-861
-856
-844
-841
-856
-868
-838
-759
-666
-606
-584
-563
-510
-438
-392
-395
-431
-461
-466
-462
-466
-483
-492
-482
-463
-457
-467
-472
-459
-443
-457
-501
-519
-458
-343
-268
-289
-366
-403
-368
-325
-353
-450
-545
-581
-568
-545
-526
-503
-490
-521
-601
-689
-736
-747
-772
-840
-926
-974
-961
-912
-867
-842
-831
-824
-823
-831
-847
-859
-862
-857
-849
-842
-837
-827
-809
-786
-770
-768
-766
-748
-718
-699
-702
-704
-668
-591
-509
-450
-382
-245
-13
277
569
849
1146
1492
1868
2237
2582
2912
3217
3452
3562
3535
3395
3160
2811
2312
1669
939
192
-526
-1194
-1798
-2320
-2745
-3068
-3286
-3390
-3375
-3265
-3108
-2949
-2798
-2625
-2406
-2154
-1921
-1754
-1649
-1558
-1437
-1298
-1191
-1147
-1141
-1123
-1067
-1003
-967
-969
-984
-992
-984
-972
-961
-953
-942
-925
-904
-889
-886
-890
-886
-874
-869
-883
-891
-854
-767
-670
-610
-588
-566
-513
-445
-407
-417
-454
-482
-486
-479
-482
-495
-502
-491
-474
-469
-478
-477
-458
-441
-457
-497
-504
-430
-315
-252
-288
-365
-392
-349
-314
-358
-465
-554
-577
-555
-532
-517
-497
-489
-527
-612
-699
-742
-751
-779
-852
-934
-973
-954
-906
-865
-843
-830
-820
-820
-832
-846
-851
-844
-834
-828
-825
-823
-814
-794
-772
-758
-756
-754
-738
-713
-698
-700
-692
-645
-566
-491
-435
-360
-208
38
330
617
892
1194
1548
1930
2297
2633
2952
3244
3463
3554
3508
3349
3095
2724
2203
1544
809
65
-646
-1309
-1907
-2418
-2826
-3130
-3334
-3428
-3404
-3284
-3120
-2960
-2809
-2634
-2409
-2152
-1924
-1765
-1663
-1563
-1431
-1291
-1194
-1161
-1157
-1130
-1067
-1004
-978
-987
-1000
-997
-981
-969
-962
-955
-937
-914
-894
-889
-893
-894
-885
-874
-881
-901
-901
-848
-753
-665
-619
-601
-570
-508
-444
-416
-432
-466
-487
-489
-486
-492
-503
-506
-498
-489
-490
-497
-490
-470
-461
-486
-525
-517
-433
-321
-273
-315
-384
-399
-358
-335
-389
-492
-571
-590
-571
-545
-520
-495
-494
-544
-633
-709
-738
-746
-782
-859
-936
-964
-938
-890
-852
-832
-822
-820
-826
-839
-850
-852
-849
-844
-840
-836
-830
-819
-798
-775
-760
-758
-755
-736
-708
-691
-691
-682
-635
-557
-483
-422
-337
-173
77
368
651
932
1245
1606
1986
2347
2682
3003
3293
3498
3568
3504
3333
3067
2677
2131
1450
706
-39
-745
-1400
-1985
-2480
-2870
-3157
-3344
-3420
-3380
-3252
-3087
-2926
-2770
-2586
-2354
-2099
-1876
-1724
-1624
-1525
-1395
-1259
-1166
-1137
-1135
-1109
-1048
-987
-963
-975
-990
-989
-973
-959
-951
-944
-927
-903
-886
-885
-893
-894
-880
-866
-873
-895
-892
-831
-730
-642
-601
-584
-549
-483
-419
-398
-421
-458
-477
-478
-477
-484
-494
-493
-480
-472
-478
-486
-476
-454
-451
-485
-523
-501
-402
-293
-264
-324
-394
-398
-353
-342
-410
-515
-583
-591
-572
-553
-532
-509
-512
-569
-664
-740
-767
-776
-817
-898
-974
-997
-965
-914
-874
-851
-838
-831
-837
-853
-868
-871
-867
-858
-850
-843
-835
-820
-798
-776
-764
-762
-757
-739
-716
-705
-705
-688
-632
-552
-482
-424
-332
-155
106
401
687
971
1290
1653
2031
2389
2723
3042
3324
3513
3567
3487
3302
3018
2606
2043
1356
609
-136
-839
-1482
-2050
-2529
-2909
-3189
-3359
-3411
-3351
-3215
-3052
-2893
-2730
-2536
-2300
-2049
-1835
-1690
-1593
-1491
-1361
-1230
-1146
-1123
-1121
-1091
-1027
-970
-950
-964
-981
-981
-967
-955
-949
-945
-933
-915
-899
-895
-900
-899
-887
-876
-884
-901
-891
-825
-727
-649
-617
-603
-563
-493
-432
-419
-448
-483
-494
-489
-487
-499
-511
-506
-486
-475
-482
-492
-485
-464
-462
-496
-530
-499
-395
-292
-272
-334
-395
-387
-341
-340
-418
-521
-581
-581
-556
-529
-501
-478
-492
-560
-653
-715
-731
-744
-797
-883
-951
-963
-930
-886
-853
-834
-822
-820
-831
-846
-855
-853
-848
-843
-838
-831
-823
-810
-792
-775
-764
-760
-750
-730
-708
-700
-700
-678
-619
-541
-475
-413
-309
-118
152
446
730
1017
1341
1709
2088
2446
2779
3091
3359
3529
3562
3468
3268
2967
2534
1951
1250
504
-229
-918
-1548
-2106
-2575
-2940
-3201
-3354
-3395
-3329
-3190
-3027
-2869
-2705
-2506
-2263
-2013
-1811
-1678
-1582
-1472
-1332
-1202
-1131
-1117
-1112
-1071
-1004
-953
-944
-963
-977
-970
-954
-943
-936
-926
-904
-879
-866
-870
-878
-874
-857
-848
-864
-885
-867
-790
-687
-614
-584
-566
-521
-454
-403
-397
-423
-452
-463
-463
-466
-475
-481
-474
-459
-452
-457
-459
-447
-428
-432
-467
-492
-452
-348
-257
-251
-318
-374
-363
-321
-329
-409
-507
-562
-564
-544
-520
-494
-475
-496
-569
-657
-711
-724
-741
-798
-881
-938
-942
-907
-867
-839
-820
-809
-810
-824
-839
-843
-837
-831
-827
-820
-809
-795
-779
-762
-746
-737
-733
-723
-702
-683
-678
-678
-654
-593
-514
-448
-385
-275
-76
199
497
785
1075
1403
1771
2146
2499
2829
3136
3392
3545
3565
3459
3249
2935
2485
1889
1183
433
-302
-988
-1612
-2159
-2615
-2970
-3219
-3357
-3381
-3302
-3157
-2991
-2831
-2663
-2459
-2213
-1965
-1769
-1643
-1552
-1441
-1302
-1179
-1115
-1105
-1096
-1050
-983
-937
-934
-951
-961
-954
-942
-937
-933
-923
-902
-878
-864
-864
-867
-860
-846
-842
-858
-873
-845
-764
-669
-604
-576
-551
-495
-423
-377
-378
-410
-440
-450
-449
-452
-461
-466
-462
-451
-448
-454
-454
-440
-428
-442
-480
-495
-437
-325
-242
-251
-322
-367
-347
-310
-333
-425
-522
-566
-558
-534
-510
-484
-471
-501
-581
-670
-719
-730
-753
-819
-906
-960
-956
-915
-872
-844
-826
-815
-815
-825
-836
-840
-839
-837
-836
-831
-824
-814
-800
-782
-764
-756
-753
-745
-724
-705
-699
-695
-663
-594
-516
-454
-387
-261
-41
245
539
820
1113
1453
1829
2204
2553
2879
3184
3429
3562
3557
3432
3210
2878
2402
1779
1057
308
-417
-1094
-1711
-2250
-2692
-3030
-3266
-3392
-3400
-3304
-3148
-2984
-2832
-2666
-2456
-2203
-1960
-1781
-1670
-1580
-1461
-1317
-1199
-1147
-1142
-1127
-1069
-993
-948
-949
-968
-976
-964
-950
-944
-941
-930
-908
-885
-876
-879
-880
-867
-848
-847
-868
-879
-840
-749
-652
-594
-572
-545
-486
-416
-377
-385
-418
-445
-451
-448
-449
-458
-462
-456
-446
-445
-452
-450
-435
-423
-441
-481
-492
-429
-319
-247
-268
-340
-377
-352
-321
-353
-448
-538
-575
-565
-541
-515
-487
-479
-519
-602
-683
-721
-731
-759
-829
-910
-952
-943
-902
-861
-833
-819
-816
-825
-838
-846
-847
-845
-844
-841
-832
-822
-813
-799
-778
-760
-752
-750
-737
-712
-691
-687
-684
-651
-580
-503
-441
-369
-233
-5
280
571
851
1152
1499
1877
2248
2589
2911
3212
3447
3559
3531
3384
3145
2797
2303
1661
927
176
-539
-1202
-1805
-2333
-2760
-3078
-3290
-3396
-3390
-3287
-3129
-2964
-2807
-2637
-2422
-2168
-1931
-1759
-1651
-1558
-1434
-1290
-1180
-1138
-1135
-1117
-1060
-992
-955
-961
-978
-983
-971
-958
-951
-946
-932
-909
-888
-881
-885
-885
-872
-854
-854
-876
-884
-840
-747
-653
-601
-583
-555
-494
-425
-391
-401
-434
-457
-461
-459
-464
-474
-475
-465
-452
-449
-455
-452
-431
-416
-434
-473
-478
-409
-300
-239
-270
-344
-373
-339
-309
-348
-443
-527
-553
-537
-512
-488
-464
-460
-503
-586
-663
-701
-713
-746
-818
-895
-933
-921
-881
-840
-812
-796
-791
-798
-810
-818
-819
-817
-812
-806
-798
-793
-788
-774
-750
-731
-726
-726
-714
-687
-665
-661
-655
-614
-537
-457
-396
-324
-180
60
354
647
928
1229
1581
1963
2332
2672
2991
3285
3508
3604
3561
3402
3151
2785
2269
1609
868
118
-594
-1252
-1846
-2358
-2769
-3075
-3278
-3370
-3347
-3230
-3068
-2905
-2748
-2568
-2343
-2089
-1862
-1702
-1597
-1498
-1368
-1230
-1134
-1101
-1098
-1072
-1009
-946
-919
-931
-948
-949
-936
-925
-919
-914
-900
-881
-865
-858
-856
-851
-837
-826
-833
-853
-851
-797
-704
-616
-571
-555
-525
-464
-398
-370
-387
-422
-445
-447
-441
-443
-449
-449
-438
-427
-425
-427
-420
-403
-399
-425
-461
-452
-370
-263
-216
-258
-327
-346
-310
-289
-341
-442
-523
-546
-528
-501
-475
-454
-457
-508
-592
-665
-697
-711
-752
-827
-899
-926
-901
-854
-814
-791
-780
-776
-780
-789
-800
-807
-809
-804
-794
-785
-779
-772
-756
-731
-715
-715
-714
-695
-663
-642
-643
-637
-590
-507
-430
-371
-291
-130
125
424
713
994
1304
1663
2044
2407
2741
3059
3346
3552
3624
3561
3388
3122
2734
2194
1520
776
31
-675
-1328
-1912
-2409
-2803
-3093
-3281
-3357
-3317
-3187
-3021
-2860
-2705
-2522
-2290
-2033
-1813
-1667
-1573
-1473
-1337
-1197
-1108
-1085
-1082
-1050
-982
-922
-902
-917
-929
-924
-909
-899
-896
-889
-870
-846
-831
-829
-834
-833
-822
-813
-825
-846
-839
-780
-688
-610
-571
-550
-509
-443
-385
-366
-387
-419
-436
-436
-435
-442
-452
-451
-436
-422
-424
-435
-433
-417
-410
-437
-473
-461
-372
-263
-224
-277
-347
-356
-312
-294
-357
-463
-537
-547
-522
-498
-479
-462
-468
-520
-605
-675
-702
-713
-751
-827
-898
-924
-898
-849
-809
-787
-777
-776
-782
-790
-798
-802
-803
-798
-789
-781
-776
-769
-751
-729
-716
-715
-712
-693
-665
-652
-655
-641
-585
-501
-429
-373
-282
-102
166
462
744
1021
1339
1708
2092
2449
2776
3087
3365
3556
3609
3527
3341
3059
2649
2085
1392
645
-93
-788
-1432
-2008
-2494
-2873
-3146
-3317
-3377
-3322
-3184
-3016
-2857
-2701
-2511
-2269
-2010
-1798
-1662
-1573
-1470
-1329
-1192
-1111
-1094
-1092
-1054
-982
-923
-907
-923
-936
-933
-922
-916
-912
-902
-884
-865
-855
-854
-854
-848
-836
-832
-847
-865
-849
-780
-684
-608
-572
-550
-507
-441
-387
-373
-396
-425
-439
-441
-444
-451
-457
-452
-440
-435
-441
-445
-432
-410
-408
-440
-472
-442
-339
-236
-215
-277
-341
-338
-291
-287
-362
-468
-533
-536
-509
-483
-459
-439
-450
-512
-601
-667
-689
-703
-751
-832
-902
-921
-892
-846
-808
-785
-776
-779
-790
-804
-812
-812
-809
-801
-792
-786
-781
-770
-749
-725
-712
-713
-710
-689
-662
-651
-652
-631
-570
-487
-419
-362
-262
-67
205
499
778
1059
1384
1754
2130
2479
2806
3124
3401
3576
3609
3509
3309
3012
2580
1993
1288
539
-194
-881
-1515
-2077
-2545
-2908
-3169
-3326
-3369
-3301
-3158
-2992
-2835
-2674
-2476
-2230
-1978
-1774
-1643
-1549
-1438
-1298
-1168
-1097
-1082
-1076
-1035
-968
-918
-909
-924
-934
-927
-913
-904
-897
-886
-868
-849
-838
-835
-835
-830
-818
-814
-827
-841
-819
-744
-645
-571
-539
-519
-476
-408
-351
-341
-370
-406
-420
-416
-411
-420
-432
-430
-415
-404
-410
-419
-412
-392
-393
-430
-462
-428
-323
-225
-217
-287
-347
-333
-284
-288
-373
-479
-533
-526
-496
-471
-450
-435
-454
-521
-608
-668
-685
-701
-755
-839
-902
-910
-871
-821
-787
-772
-767
-768
-776
-787
-798
-803
-801
-795
-786
-779
-774
-763
-741
-720
-712
-714
-706
-682
-657
-651
-654
-630
-563
-481
-418
-359
-247
-37
246
540
818
1105
1441
1819
2195
2542
2868
3183
3449
3601
3607
3489
3278
2969
2517
1908
1189
439
-286
-965
-1588
-2137
-2589
-2935
-3181
-3326
-3354
-3272
-3120
-2954
-2799
-2635
-2427
-2174
-1925
-1736
-1618
-1525
-1408
-1269
-1153
-1098
-1088
-1071
-1017
-948
-905
-901
-915
-921
-912
-900
-893
-886
-875
-857
-838
-827
-825
-826
-820
-809
-808
-823
-835
-807
-729
-633
-567
-539
-518
-472
-407
-360
-359
-391
-424
-437
-435
-432
-440
-447
-440
-425
-415
-420
-425
-413
-394
-401
-439
-461
-411
-299
-210
-216
-290
-339
-314
-268
-285
-379
-482
-528
-516
-488
-465
-444
-430
-452
-524
-610
-664
-679
-698
-759
-844
-902
-904
-865
-818
-788
-773
-768
-770
-780
-794
-805
-807
-803
-796
-790
-788
-784
-770
-746
-727
-725
-729
-719
-691
-666
-662
-663
-633
-562
-482
-421
-356
-230
-8
279
571
848
1142
1486
1867
2242
2586
2909
3214
3463
3595
3586
3456
3230
2897
2421
1796
1075
328
-393
-1069
-1683
-2216
-2649
-2980
-3213
-3341
-3352
-3254
-3098
-2934
-2781
-2616
-2405
-2151
-1908
-1727
-1612
-1518
-1397
-1254
-1138
-1086
-1079
-1063
-1011
-944
-904
-904
-921
-929
-922
-910
-899
-889
-876
-857
-839
-830
-831
-834
-829
-816
-815
-833
-844
-809
-723
-624
-562
-539
-518
-467
-398
-355
-360
-396
-428
-437
-432
-430
-439
-447
-443
-431
-424
-428
-429
-418
-406
-421
-457
-466
-404
-295
-226
-250
-324
-360
-328
-289
-320
-417
-508
-541
-526
-500
-478
-454
-442
-472
-551
-636
-681
-692
-717
-788
-877
-928
-918
-872
-827
-801
-790
-784
-781
-784
-792
-796
-797
-793
-785
-776
-769
-763
-750
-731
-715
-710
-708
-693
-665
-643
-639
-634
-596
-524
-447
-387
-316
-176
56
343
634
915
1216
1563
1937
2299
2638
2964
3267
3498
3601
3568
3426
3194
2846
2346
1701
970
223
-494
-1162
-1766
-2286
-2709
-3032
-3253
-3360
-3347
-3238
-3082
-2920
-2761
-2580
-2355
-2101
-1865
-1691
-1578
-1483
-1363
-1228
-1122
-1075
-1067
-1049
-995
-930
-894
-896
-912
-919
-910
-898
-889
-882
-871
-854
-836
-826
-827
-829
-821
-806
-804
-820
-827
-787
-697
-603
-548
-529
-503
-446
-380
-346
-359
-396
-421
-426
-423
-425
-432
-434
-424
-414
-415
-422
-417
-399
-389
-412
-454
-457
-383
-270
-210
-244
-318
-346
-311
-283
-325
-424
-509
-535
-520
-496
-471
-443
-435
-474
-558
-637
-672
-683
-718
-794
-876
-914
-895
-848
-804
-775
-761
-758
-765
-778
-789
-790
-788
-784
-778
-768
-759
-748
-732
-714
-702
-701
-699
-680
-649
-629
-629
-625
-584
-507
-429
-368
-289
-137
107
398
686
966
1273
1629
2008
2371
2705
3025
3320
3540
3630
3583
3426
3177
2808
2289
1630
896
153
-556
-1215
-1810
-2319
-2729
-3036
-3240
-3334
-3309
-3190
-3027
-2865
-2710
-2532
-2309
-2055
-1828
-1669
-1568
-1472
-1344
-1205
-1105
-1069
-1062
-1035
-972
-908
-880
-889
-904
-905
-892
-882
-880
-878
-867
-846
-826
-818
-821
-822
-809
-794
-797
-821
-828
-781
-687
-597
-553
-541
-515
-451
-382
-352
-372
-410
-430
-425
-417
-423
-437
-439
-425
-411
-414
-427
-425
-404
-392
-417
-457
-450
-363
-250
-207
-258
-332
-345
-298
-275
-332
-437
-513
-528
-509
-488
-466
-440
-437
-486
-575
-650
-676
-682
-717
-795
-870
-897
-870
-824
-790
-771
-760
-754
-759
-772
-785
-788
-783
-773
-763
-753
-745
-733
-713
-690
-675
-672
-670
-655
-631
-617
-617
-607
-559
-483
-413
-357
-272
-106
152
449
737
1016
1323
1681
2062
2425
2760
3078
3368
3576
3652
3588
3414
3146
2757
2216
1541
798
58
-641
-1289
-1871
-2368
-2761
-3051
-3241
-3321
-3286
-3160
-2994
-2832
-2674
-2491
-2259
-2003
-1779
-1626
-1527
-1430
-1301
-1165
-1074
-1047
-1047
-1022
-957
-891
-864
-875
-892
-894
-879
-865
-857
-850
-835
-814
-797
-791
-793
-791
-779
-769
-777
-796
-791
-733
-639
-556
-514
-494
-458
-394
-335
-316
-338
-372
-390
-390
-387
-392
-399
-394
-380
-372
-379
-390
-385
-366
-362
-392
-428
-409
-314
-205
-169
-222
-288
-293
-249
-237
-305
-412
-485
-497
-479
-458
-435
-410
-412
-467
-557
-628
-651
-660
-705
-790
-867
-890
-859
-810
-773
-753
-743
-740
-746
-758
-767
-767
-763
-758
-752
-745
-737
-726
-710
-693
-683
-681
-676
-657
-630
-615
-613
-597
-544
-464
-393
-333
-241
-66
195
491
779
1065
1384
1749
2128
2487
2822
3141
3422
3611
3663
3584
3401
3122
2713
2152
1464
721
-18
-717
-1361
-1934
-2417
-2798
-3079
-3256
-3316
-3259
-3120
-2953
-2793
-2635
-2444
-2207
-1954
-1742
-1600
-1505
-1402
-1269
-1137
-1055
-1034
-1029
-994
-927
-868
-851
-866
-881
-879
-863
-851
-845
-839
-825
-806
-790
-786
-788
-786
-774
-766
-777
-797
-788
-723
-622
-539
-502
-487
-451
-383
-321
-304
-330
-367
-384
-382
-380
-388
-398
-394
-381
-373
-379
-386
-375
-355
-354
-386
-416
-387
-289
-189
-167
-225
-286
-285
-244
-242
-313
-414
-477
-483
-461
-437
-410
-387
-397
-461
-552
-618
-640
-657
-711
-797
-865
-878
-843
-797
-763
-743
-732
-731
-742
-759
-769
-768
-763
-757
-752
-745
-737
-724
-705
-687
-677
-674
-666
-644
-619
-608
-607
-585
-525
-444
-373
-309
-206
-18
248
540
824
1110
1434
1801
2178
2535
2871
3188
3460
3631
3665
3570
3375
3081
2652
2072
1372
625
-108
-796
-1427
-1989
-2462
-2833
-3100
-3259
-3303
-3236
-3093
-2927
-2767
-2605
-2407
-2162
-1907
-1699
-1565
-1472
-1365
-1226
-1096
-1024
-1011
-1008
-970
-903
-851
-839
-852
-861
-855
-842
-834
-829
-819
-799
-777
-765
-766
-771
-766
-751
-743
-758
-780
-765
-693
-595
-521
-491
-472
-426
-357
-304
-296
-325
-357
-368
-364
-361
-367
-374
-369
-356
-348
-354
-358
-347
-328
-331
-368
-397
-360
-254
-157
-149
-219
-280
-268
-221
-224
-305
-410
-469
-470
-446
-423
-399
-379
-395
-464
-555
-615
-629
-642
-696
-782
-849
-859
-820
-770
-734
-717
-711
-714
-726
-741
-748
-746
-741
-737
-733
-728
-719
-704
-682
-663
-657
-659
-652
-628
-601
-593
-595
-574
-510
-428
-362
-302
-195
6
286
586
869
1154
1483
1856
2235
2586
2913
3222
3485
3643
3661
3550
3341
3031
2584
1984
1270
519
-211
-891
-1514
-2066
-2527
-2883
-3132
-3271
-3297
-3218
-3073
-2908
-2751
-2586
-2385
-2140
-1889
-1690
-1562
-1470
-1357
-1214
-1085
-1021
-1014
-1009
-964
-893
-845
-842
-863
-874
-866
-852
-843
-838
-826
-807
-787
-776
-775
-774
-765
-751
-748
-763
-777
-751
-673
-577
-509
-482
-462
-413
-344
-296
-293
-323
-353
-362
-359
-357
-364
-369
-362
-351
-349
-357
-360
-346
-329
-339
-380
-403
-356
-248
-163
-167
-237
-286
-266
-225
-242
-330
-431
-482
-481
-460
-439
-415
-400
-426
-501
-590
-643
-656
-676
-737
-819
-873
-870
-830
-785
-753
-734
-725
-728
-741
-756
-763
-762
-758
-753
-747
-740
-732
-719
-700
-683
-676
-677
-669
-644
-618
-609
-608
-580
-512
-429
-365
-303
-187
24
306
602
883
1172
1507
1883
2258
2605
2929
3235
3489
3631
3632
3508
3286
2960
2495
1882
1165
417
-308
-986
-1603
-2144
-2591
-2935
-3176
-3306
-3317
-3223
-3070
-2906
-2752
-2585
-2376
-2127
-1885
-1700
-1581
-1488
-1373
-1233
-1112
-1052
-1043
-1035
-989
-921
-873
-868
-886
-897
-890
-876
-866
-860
-849
-830
-809
-797
-796
-797
-789
-775
-773
-792
-806
-773
-686
-586
-521
-497
-474
-419
-347
-301
-304
-339
-369
-378
-375
-377
-387
-394
-388
-376
-371
-377
-375
-358
-340
-351
-390
-407
-352
-243
-164
-178
-252
-298
-274
-236
-260
-353
-449
-491
-480
-455
-430
-405
-390
-419
-498
-586
-636
-649
-672
-737
-820
-869
-860
-814
-765
-734
-718
-713
-717
-728
-738
-742
-740
-738
-734
-728
-722
-716
-705
-688
-671
-664
-663
-652
-626
-601
-591
-586
-553
-485
-409
-348
-281
-153
69
354
648
930
1228
1572
1951
2325
2669
2991
3292
3531
3654
3637
3501
3269
2930
2447
1817
1091
343
-376
-1045
-1654
-2187
-2624
-2955
-3182
-3298
-3299
-3197
-3040
-2876
-2723
-2556
-2344
-2091
-1850
-1673
-1562
-1469
-1347
-1203
-1089
-1041
-1037
-1023
-968
-899
-860
-861
-878
-883
-874
-863
-859
-854
-840
-817
-796
-786
-785
-782
-769
-754
-757
-778
-786
-744
-654
-561
-508
-490
-465
-409
-340
-301
-308
-342
-371
-378
-374
-374
-380
-383
-376
-366
-364
-371
-371
-358
-347
-363
-400
-406
-339
-227
-157
-179
-250
-284
-255
-224
-261
-361
-454
-489
-476
-451
-426
-403
-396
-434
-515
-595
-635
-647
-678
-750
-831
-872
-859
-816
-776
-753
-741
-737
-743
-755
-765
-768
-764
-757
-749
-741
-737
-733
-722
-701
-682
-677
-677
-664
-637
-614
-610
-607
-571
-498
-421
-362
-290
-149
87
379
670
949
1250
1601
1982
2352
2693
3017
3317
3549
3655
3621
3471
3227
2868
2361
1712
981
238
-473
-1136
-1736
-2255
-2673
-2987
-3199
-3302
-3288
-3175
-3014
-2851
-2698
-2526
-2306
-2051
-1817
-1648
-1540
-1444
-1319
-1180
-1074
-1032
-1024
-1003
-948
-888
-857
-859
-870
-873
-867
-862
-858
-851
-836
-818
-803
-795
-790
-785
-776
-770
-780
-800
-799
-749
-659
-572
-524
-503
-471
-409
-343
-312
-327
-362
-383
-381
-372
-373
-385
-391
-385
-375
-374
-383
-382
-365
-353
-374
-411
-410
-333
-222
-165
-203
-278
-303
-266
-237
-281
-381
-466
-492
-476
-450
-424
-399
-396
-442
-527
-605
-641
-653
-689
-763
-841
-876
-858
-812
-769
-741
-728
-725
-733
-748
-760
-764
-763
-760
-755
-748
-743
-734
-716
-694
-679
-678
-677
-659
-629
-610
-611
-608
-566
-485
-403
-340
-263
-112
133
430
724
1007
1313
1666
2046
2413
2752
3073
3364
3577
3660
3606
3440
3183
2807
2281
1617
879
136
-569
-1223
-1814
-2320
-2723
-3023
-3221
-3308
-3279
-3155
-2989
-2826
-2673
-2493
-2264
-2005
-1777
-1622
-1525
-1429
-1300
-1160
-1063
-1032
-1029
-1003
-940
-876
-849
-858
-872
-874
-862
-852
-844
-835
-819
-798
-779
-771
-769
-765
-753
-742
-748
-766
-764
-714
-623
-536
-488
-468
-437
-378
-316
-288
-304
-338
-360
-364
-361
-365
-374
-376
-366
-354
-354
-360
-354
-334
-325
-351
-391
-384
-299
-188
-142
-190
-263
-279
-237
-215
-270
-374
-451
-467
-445
-420
-398
-377
-378
-429
-518
-597
-631
-643
-681
-757
-831
-859
-834
-787
-750
-731
-723
-722
-730
-742
-754
-758
-757
-752
-742
-731
-723
-713
-696
-674
-659
-656
-652
-634
-606
-591
-595
-587
-537
-454
-377
-318
-235
-68
191
489
773
1048
1355
1716
2098
2460
2793
3111
3400
3606
3674
3605
3431
3168
2781
2235
1552
807
70
-624
-1272
-1861
-2363
-2756
-3040
-3222
-3297
-3258
-3129
-2962
-2801
-2649
-2467
-2234
-1975
-1753
-1604
-1506
-1403
-1267
-1131
-1044
-1019
-1014
-981
-916
-858
-837
-847
-858
-855
-842
-833
-827
-820
-805
-788
-777
-775
-779
-777
-764
-753
-762
-784
-780
-720
-621
-533
-490
-473
-440
-377
-315
-292
-314
-351
-371
-370
-365
-369
-380
-382
-370
-359
-361
-370
-365
-346
-338
-363
-398
-384
-296
-189
-151
-201
-269
-279
-241
-232
-300
-406
-476
-485
-463
-440
-417
-392
-391
-442
-531
-607
-638
-650
-691
-769
-843
-868
-840
-790
-749
-728
-719
-716
-720
-730
-741
-745
-743
-735
-724
-717
-714
-710
-693
-670
-656
-657
-656
-638
-609
-593
-595
-584
-533
-452
-378
-318
-227
-51
212
508
791
1072
1390
1759
2142
2501
2830
3146
3430
3624
3679
3596
3406
3123
2715
2159
1476
733
-6
-704
-1348
-1922
-2408
-2791
-3069
-3243
-3303
-3252
-3119
-2955
-2797
-2639
-2448
-2211
-1957
-1745
-1604
-1508
-1402
-1263
-1128
-1047
-1029
-1024
-986
-916
-858
-842
-856
-867
-864
-852
-845
-840
-830
-812
-793
-780
-777
-777
-772
-760
-755
-767
-783
-769
-703
-607
-530
-493
-475
-436
-372
-315
-299
-322
-357
-374
-372
-367
-371
-382
-384
-375
-365
-365
-369
-361
-343
-340
-369
-400
-376
-280
-177
-151
-209
-275
-277
-232
-224
-296
-402
-471
-477
-451
-424
-401
-383
-394
-454
-542
-608
-631
-643
-688
-769
-838
-854
-818
-764
-725
-707
-702
-703
-710
-723
-732
-735
-732
-725
-717
-711
-705
-692
-669
-646
-635
-636
-630
-607
-580
-569
-573
-557
-499
-418
-349
-290
-191
-2
267
559
839
1122
1447
1819
2197
2550
2881
3199
3475
3649
3682
3586
3392
3100
2672
2088
1385
640
-90
-779
-1418
-1986
-2460
-2824
-3085
-3242
-3288
-3222
-3079
-2912
-2754
-2593
-2394
-2146
-1892
-1690
-1560
-1465
-1349
-1204
-1076
-1011
-999
-989
-942
-871
-820
-810
-825
-836
-833
-823
-815
-807
-799
-784
-768
-756
-753
-756
-755
-746
-741
-755
-771
-752
-679
-579
-501
-466
-448
-409
-348
-298
-288
-313
-345
-361
-364
-363
-370
-378
-378
-368
-361
-364
-367
-358
-343
-344
-375
-400
-366
-267
-171
-157
-221
-282
-277
-234
-237
-316
-421
-479
-477
-447
-419
-395
-379
-397
-465
-555
-617
-638
-656
-710
-792
-854
-863
-827
-780
-746
-730
-724
-727
-736
-747
-755
-759
-758
-753
-745
-737
-730
-718
-696
-676
-671
-675
-669
-644
-618
-613
-621
-602
-537
-452
-386
-328
-221
-17
263
560
841
1127
1460
1838
2219
2571
2898
3212
3479
3639
3656
3545
3337
3031
2587
1989
1279
530
-200
-884
-1513
-2067
-2525
-2879
-3132
-3280
-3311
-3229
-3078
-2913
-2761
-2602
-2400
-2151
-1902
-1708
-1583
-1489
-1373
-1233
-1111
-1048
-1035
-1023
-977
-910
-863
-855
-866
-869
-859
-845
-837
-830
-818
-797
-776
-766
-767
-771
-765
-752
-747
-763
-778
-754
-674
-573
-502
-475
-457
-412
-342
-290
-284
-315
-348
-360
-354
-349
-355
-365
-363
-352
-345
-350
-354
-342
-325
-332
-370
-394
-347
-238
-149
-153
-225
-273
-251
-208
-227
-318
-417
-461
-452
-429
-410
-385
-365
-387
-463
-556
-611
-621
-635
-693
-778
-835
-833
-790
-744
-716
-703
-694
-691
-697
-709
-716
-715
-708
-701
-695
-689
-682
-667
-646
-628
-620
-618
-606
-582
-561
-559
-560
-531
-461
-380
-318
-256
-134
82
365
657
936
1228
1566
1939
2310
2654
2982
3294
3548
3686
3684
3564
3350
3030
2564
1946
1226
479
-245
-924
-1546
-2090
-2533
-2871
-3108
-3243
-3264
-3177
-3024
-2860
-2708
-2544
-2336
-2083
-1837
-1651
-1533
-1439
-1321
-1180
-1064
-1010
-1001
-986
-933
-863
-817
-813
-829
-838
-831
-818
-807
-800
-789
-772
-754
-741
-740
-744
-742
-734
-731
-745
-756
-728
-648
-549
-481
-453
-432
-383
-314
-268
-269
-303
-334
-343
-339
-340
-352
-359
-352
-338
-334
-344
-348
-334
-316
-327
-367
-385
-328
-214
-132
-145
-223
-270
-245
-204
-228
-324
-423
-464
-453
-431
-412
-387
-369
-393
-471
-563
-614
-623
-638
-699
-785
-838
-829
-779
-730
-701
-688
-680
-679
-688
-703
-711
-711
-705
-698
-694
-694
-689
-673
-651
-634
-631
-635
-626
-601
-580
-577
-574
-538
-466
-388
-327
-259
-128
95
377
664
942
1238
1583
1961
2332
2678
3006
3313
3555
3678
3664
3533
3308
2971
2487
1858
1136
392
-328
-1003
-1617
-2150
-2585
-2917
-3148
-3268
-3269
-3168
-3013
-2852
-2698
-2525
-2305
-2049
-1810
-1634
-1522
-1426
-1303
-1162
-1051
-1003
-994
-975
-918
-850
-811
-813
-830
-836
-827
-814
-805
-799
-788
-770
-751
-741
-742
-747
-743
-732
-730
-748
-760
-727
-641
-543
-481
-459
-436
-381
-311
-270
-279
-316
-343
-345
-338
-341
-354
-358
-346
-330
-328
-340
-343
-326
-311
-328
-372
-386
-322
-209
-137
-160
-233
-267
-234
-199
-235
-336
-430
-464
-450
-425
-403
-377
-364
-396
-477
-561
-604
-612
-638
-709
-795
-842
-830
-787
-747
-724
-712
-705
-706
-715
-726
-730
-726
-720
-714
-709
-705
-695
-676
-651
-635
-632
-633
-618
-591
-574
-580
-584
-548
-470
-387
-325
-255
-117
118
411
704
982
1278
1624
2002
2373
2716
3040
3340
3571
3680
3649
3502
3262
2909
2411
1768
1036
288
-429
-1095
-1698
-2221
-2646
-2968
-3185
-3290
-3274
-3161
-3001
-2841
-2689
-2513
-2289
-2034
-1805
-1643
-1539
-1442
-1315
-1177
-1074
-1034
-1026
-1002
-942
-876
-840
-843
-860
-867
-858
-845
-835
-829
-819
-800
-779
-768
-769
-772
-763
-748
-747
-765
-770
-726
-633
-539
-486
-468
-442
-385
-318
-285
-300
-338
-363
-366
-361
-364
-375
-380
-369
-354
-352
-362
-362
-346
-334
-356
-400
-405
-331
-215
-152
-186
-262
-289
-252
-223
-270
-376
-464
-489
-469
-444
-422
-399
-391
-430
-515
-598
-639
-651
-684
-756
-835
-870
-849
-802
-760
-733
-716
-708
-714
-730
-745
-748
-742
-734
-727
-722
-718
-709
-691
-669
-653
-648
-644
-627
-601
-587
-589
-583
-536
-456
-380
-324
-249
-98
146
437
724
1004
1312
1667
2045
2409
2748
3073
3370
3589
3677
3628
3469
3217
2846
2324
1664
929
185
-525
-1185
-1780
-2288
-2694
-2996
-3196
-3286
-3260
-3142
-2983
-2825
-2673
-2493
-2264
-2009
-1783
-1626
-1523
-1421
-1291
-1156
-1064
-1033
-1025
-995
-930
-868
-841
-849
-861
-860
-845
-833
-827
-822
-810
-792
-774
-766
-768
-769
-760
-747
-748
-765
-765
-714
-618
-525
-475
-457
-429
-368
-303
-274
-290
-327
-349
-351
-348
-356
-367
-366
-352
-339
-342
-353
-349
-327
-315
-339
-377
-368
-279
-166
-119
-167
-240
-255
-212
-190
-246
-350
-428
-444
-424
-401
-379
-357
-358
-409
-499
-577
-610
-620
-655
-731
-807
-836
-812
-765
-728
-708
-698
-694
-697
-708
-719
-723
-720
-715
-707
-700
-694
-686
-672
-653
-638
-633
-628
-610
-584
-569
-568
-555
-504
-425
-352
-297
-216
-55
198
494
784
1066
1375
1733
2113
2479
2818
3138
3424
3626
3696
3633
3461
3195
2805
2263
1587
845
103
-598
-1247
-1828
-2324
-2719
-3009
-3196
-3269
-3227
-3099
-2937
-2781
-2627
-2442
-2207
-1948
-1725
-1573
-1474
-1373
-1240
-1103
-1012
-984
-980
-950
-887
-826
-802
-813
-828
-829
-815
-804
-798
-793
-780
-760
-743
-737
-741
-739
-726
-714
-721
-740
-734
-673
-575
-492
-454
-439
-403
-335
-270
-247
-268
-303
-321
-320
-315
-319
-329
-331
-323
-315
-320
-328
-322
-304
-301
-332
-371
-357
-267
-160
-125
-178
-247
-256
-215
-202
-267
-372
-446
-458
-437
-411
-387
-365
-371
-426
-509
-575
-598
-610
-654
-734
-803
-823
-796
-751
-716
-693
-680
-676
-683
-694
-700
-698
-696
-693
-689
-681
-671
-660
-644
-627
-616
-613
-607
-587
-560
-548
-551
-538
-484
-400
-324
-265
-175
-1
260
557
842
1120
1432
1795
2176
2538
2872
3187
3466
3656
3711
3632
3447
3166
2759
2198
1507
756
13
-684
-1323
-1893
-2379
-2763
-3042
-3212
-3268
-3213
-3079
-2916
-2757
-2597
-2404
-2165
-1910
-1697
-1554
-1459
-1356
-1222
-1088
-1005
-984
-982
-949
-883
-824
-804
-817
-831
-830
-817
-807
-800
-792
-776
-757
-743
-742
-746
-745
-733
-723
-733
-752
-742
-677
-578
-496
-459
-443
-407
-345
-288
-269
-289
-320
-337
-338
-337
-343
-349
-345
-332
-325
-330
-337
-328
-309
-309
-344
-377
-350
-249
-145
-122
-182
-245
-242
-196
-192
-267
-374
-440
-445
-421
-395
-370
-350
-360
-422
-510
-575
-597
-612
-662
-745
-813
-831
-801
-756
-720
-699
-687
-685
-694
-708
-717
-719
-716
-712
-706
-702
-696
-684
-662
-639
-629
-630
-625
-602
-573
-561
-564
-547
-488
-405
-336
-278
-180
9
280
577
859
1143
1469
1841
2221
2577
2906
3220
3493
3667
3702
3608
3413
3122
2698
2119
1418
668
-68
-758
-1390
-1952
-2424
-2792
-3058
-3216
-3259
-3191
-3048
-2883
-2726
-2567
-2374
-2134
-1883
-1677
-1542
-1446
-1336
-1198
-1070
-997
-980
-970
-926
-857
-807
-799
-816
-825
-816
-801
-795
-793
-784
-763
-738
-724
-724
-727
-721
-705
-699
-714
-733
-716
-644
-547
-475
-445
-427
-381
-312
-256
-245
-272
-303
-316
-314
-312
-320
-328
-324
-311
-303
-308
-311
-300
-284
-290
-327
-354
-316
-213
-121
-114
-180
-234
-222
-181
-190
-273
-373
-427
-426
-403
-381
-356
-337
-356
-428
-520
-580
-593
-604
-657
-741
-806
-814
-777
-731
-699
-683
-677
-681
-694
-708
-714
-713
-709
-704
-695
-683
-671
-657
-640
-622
-613
-612
-606
-587
-564
-554
-553
-530
-468
-387
-322
-262
-155
44
321
618
902
1189
1517
1888
2265
2618
2946
3256
3520
3682
3707
3605
3402
3097
2656
2065
1358
607
-127
-813
-1443
-2000
-2465
-2824
-3079
-3227
-3263
-3189
-3041
-2873
-2715
-2553
-2352
-2104
-1851
-1651
-1525
-1433
-1323
-1185
-1060
-993
-979
-969
-924
-855
-805
-798
-815
-825
-819
-806
-799
-793
-780
-759
-738
-730
-733
-736
-727
-710
-705
-724
-742
-718
-640
-541
-472
-442
-421
-373
-307
-259
-254
-280
-307
-319
-321
-325
-334
-339
-331
-318
-314
-321
-324
-311
-295
-303
-341
-364
-320
-215
-126
-123
-188
-238
-223
-184
-198
-283
-381
-431
-428
-404
-381
-356
-339
-361
-433
-522
-578
-594
-614
-674
-759
-819
-822
-781
-731
-696
-677
-669
-670
-680
-692
-699
-701
-699
-693
-684
-676
-670
-657
-633
-609
-599
-601
-596
-571
-543
-535
-538
-514
-447
-362
-296
-238
-128
79
362
660
941
1229
1561
1936
2312
2661
2988
3299
3558
3705
3708
3587
3373
3060
2607
1999
1281
531
-194
-871
-1493
-2043
-2500
-2851
-3097
-3237
-3262
-3180
-3030
-2863
-2707
-2545
-2342
-2093
-1844
-1652
-1533
-1444
-1331
-1189
-1066
-1007
-999
-988
-936
-863
-818
-818
-837
-843
-832
-819
-813
-808
-794
-771
-751
-746
-751
-753
-744
-730
-732
-753
-767
-736
-653
-556
-491
-463
-438
-384
-315
-270
-270
-301
-331
-342
-340
-340
-348
-354
-347
-333
-325
-329
-331
-317
-300
-309
-346
-363
-310
-198
-112
-119
-193
-243
-223
-182
-200
-289
-387
-432
-424
-398
-375
-351
-338
-363
-437
-522
-574
-590
-612
-674
-757
-812
-812
-773
-727
-696
-680
-676
-679
-689
-700
-710
-717
-720
-716
-706
-697
-690
-678
-657
-635
-624
-622
-610
-585
-562
-558
-558
-529
-458
-376
-312
-248
-127
89
373
669
952
1246
1586
1962
2336
2683
3010
3317
3566
3701
3694
3566
3342
3014
2543
1921
1197
447
-275
-947
-1560
-2098
-2540
-2877
-3109
-3234
-3246
-3155
-3002
-2835
-2678
-2512
-2305
-2055
-1809
-1623
-1508
-1418
-1301
-1157
-1036
-983
-978
-967
-914
-846
-804
-804
-821
-829
-821
-810
-800
-790
-775
-758
-742
-734
-733
-731
-722
-708
-706
-723
-732
-697
-612
-515
-452
-430
-410
-360
-294
-250
-252
-284
-313
-322
-319
-322
-331
-335
-326
-312
-309
-318
-320
-305
-290
-302
-338
-350
-290
-179
-103
-117
-185
-222
-194
-160
-190
-285
-376
-410
-397
-374
-356
-335
-324
-353
-429
-513
-561
-576
-601
-665
-747
-796
-792
-751
-707
-676
-659
-653
-656
-666
-675
-680
-681
-679
-673
-664
-655
-648
-636
-618
-602
-597
-596
-583
-558
-539
-539
-538
-502
-428
-347
-287
-219
-86
143
432
724
1003
1300
1646
2023
2391
2729
3050
3354
3596
3716
3692
3550
3316
2976
2490
1853
1122
374
-340
-1003
-1610
-2141
-2573
-2897
-3116
-3229
-3228
-3128
-2971
-2806
-2652
-2482
-2265
-2009
-1770
-1599
-1493
-1401
-1276
-1132
-1020
-974
-969
-950
-892
-825
-789
-792
-806
-809
-797
-783
-772
-762
-746
-727
-714
-710
-713
-713
-704
-694
-698
-719
-726
-684
-595
-501
-445
-425
-401
-347
-281
-244
-252
-287
-315
-320
-313
-310
-316
-320
-312
-299
-295
-302
-305
-294
-284
-302
-340
-346
-278
-168
-102
-127
-199
-231
-200
-169
-207
-304
-391
-420
-405
-380
-358
-335
-327
-365
-448
-532
-574
-587
-618
-688
-769
-810
-796
-753
-712
-687
-674
-668
-670
-680
-694
-702
-705
-702
-693
-684
-678
-672
-658
-637
-619
-612
-608
-591
-564
-545
-543
-537
-494
-418
-343
-287
-216
-72
165
453
740
1019
1323
1679
2060
2427
2764
3086
3386
3616
3717
3676
3521
3276
2918
2408
1752
1013
267
-442
-1104
-1707
-2228
-2643
-2951
-3160
-3265
-3253
-3139
-2972
-2805
-2651
-2476
-2249
-1986
-1750
-1589
-1490
-1397
-1269
-1128
-1028
-994
-992
-967
-902
-834
-802
-808
-821
-821
-806
-793
-786
-778
-763
-742
-726
-722
-725
-723
-709
-695
-700
-720
-721
-671
-577
-487
-437
-417
-386
-326
-261
-230
-243
-278
-302
-306
-301
-303
-311
-313
-303
-290
-288
-297
-296
-281
-270
-289
-325
-324
-250
-140
-83
-116
-186
-209
-174
-150
-199
-303
-389
-413
-395
-370
-349
-329
-329
-374
-456
-533
-568
-579
-612
-684
-761
-798
-781
-734
-689
-661
-649
-648
-655
-666
-675
-679
-682
-682
-677
-670
-665
-659
-643
-619
-603
-602
-603
-587
-556
-535
-535
-532
-488
-409
-330
-270
-191
-37
210
504
793
1074
1384
1743
2124
2487
2821
3141
3435
3652
3737
3683
3518
3260
2882
2351
1679
937
193
-512
-1170
-1764
-2271
-2671
-2964
-3157
-3244
-3215
-3090
-2922
-2758
-2605
-2428
-2201
-1944
-1717
-1561
-1462
-1363
-1230
-1090
-994
-963
-960
-932
-868
-806
-780
-789
-802
-802
-793
-787
-781
-770
-750
-728
-715
-712
-714
-710
-698
-689
-699
-718
-717
-667
-577
-490
-440
-416
-381
-322
-260
-231
-247
-284
-312
-320
-316
-317
-326
-329
-319
-304
-298
-302
-299
-282
-275
-299
-337
-331
-250
-140
-92
-136
-210
-229
-190
-168
-220
-323
-402
-421
-402
-378
-357
-337
-339
-387
-472
-548
-583
-597
-634
-708
-785
-819
-798
-749
-705
-682
-675
-674
-677
-683
-693
-703
-707
-701
-685
-672
-666
-659
-640
-614
-599
-600
-599
-579
-548
-533
-539
-533
-483
-398
-320
-263
-182
-18
239
535
821
1100
1412
1772
2150
2509
2843
3164
3454
3657
3722
3652
3477
3210
2818
2270
1587
843
104
-594
-1241
-1823
-2317
-2706
-2990
-3172
-3244
-3201
-3068
-2900
-2739
-2583
-2397
-2159
-1900
-1682
-1538
-1443
-1339
-1203
-1068
-985
-961
-952
-914
-848
-794
-777
-785
-791
-786
-777
-774
-770
-759
-739
-718
-706
-704
-703
-695
-680
-671
-683
-703
-693
-629
-530
-450
-415
-401
-364
-294
-231
-212
-241
-281
-300
-297
-291
-299
-312
-315
-302
-287
-286
-292
-287
-270
-267
-297
-330
-309
-214
-108
-77
-131
-194
-194
-148
-137
-208
-316
-387
-397
-376
-355
-336
-319
-328
-386
-474
-541
-563
-573
-616
-697
-770
-791
-761
-712
-674
-654
-643
-639
-643
-655
-668
-673
-669
-659
-651
-649
-649
-640
-617
-592
-584
-590
-587
-562
-527
-513
-518
-505
-449
-365
-294
-239
-148
34
302
600
884
1167
1488
1855
2234
2591
2925
3243
3520
3701
3745
3660
3472
3188
2772
2204
1512
767
29
-668
-1308
-1875
-2350
-2724
-3001
-3174
-3229
-3165
-3022
-2856
-2704
-2552
-2359
-2113
-1856
-1651
-1520
-1427
-1315
-1172
-1041
-969
-953
-946
-905
-840
-789
-776
-786
-793
-788
-777
-769
-759
-745
-727
-712
-704
-702
-700
-692
-677
-670
-682
-697
-680
-612
-516
-440
-403
-381
-339
-274
-219
-206
-233
-267
-282
-278
-274
-283
-296
-296
-280
-267
-271
-281
-274
-253
-247
-278
-311
-285
-187
-86
-68
-133
-197
-193
-149
-148
-225
-329
-387
-387
-363
-343
-323
-304
-315
-378
-468
-536
-558
-570
-618
-700
-770
-786
-753
-704
-671
-656
-650
-647
-649
-659
-671
-679
-678
-668
-656
-649
-646
-635
-614
-590
-580
-581
-573
-545
-515
-506
-512
-495
-431
-346
-281
-228
-129
66
342
638
918
1203
1535
1910
2286
2633
2960
3279
3556
3724
3746
3639
3439
3144
2711
2121
1416
670
-59
-746
-1380
-1941
-2407
-2769
-3031
-3189
-3228
-3154
-3009
-2847
-2695
-2536
-2334
-2085
-1833
-1637
-1510
-1417
-1303
-1160
-1031
-961
-946
-937
-896
-832
-782
-769
-778
-787
-788
-782
-775
-763
-747
-729
-714
-706
-704
-701
-693
-678
-671
-683
-698
-680
-609
-509
-433
-403
-390
-354
-287
-227
-210
-236
-274
-291
-288
-283
-291
-303
-301
-285
-276
-287
-300
-291
-266
-261
-295
-327
-295
-190
-92
-85
-155
-215
-202
-157
-165
-250
-351
-403
-398
-377
-361
-344
-330
-347
-413
-501
-558
-573
-589
-646
-732
-795
-798
-757
-711
-683
-669
-659
-652
-656
-668
-681
-686
-681
-675
-670
-669
-665
-651
-627
-607
-601
-603
-593
-564
-537
-532
-536
-512
-446
-364
-299
-236
-118
91
369
659
938
1231
1570
1945
2315
2658
2984
3296
3557
3706
3714
3599
3387
3070
2610
2001
1286
539
-189
-871
-1495
-2041
-2490
-2836
-3083
-3225
-3249
-3162
-3008
-2845
-2696
-2537
-2332
-2080
-1832
-1645
-1525
-1429
-1308
-1164
-1043
-983
-970
-955
-905
-840
-796
-791
-805
-814
-810
-799
-792
-786
-776
-757
-735
-721
-719
-722
-716
-701
-693
-706
-723
-700
-621
-520
-448
-422
-406
-360
-288
-233
-231
-269
-306
-314
-304
-301
-314
-327
-319
-299
-290
-301
-310
-295
-270
-274
-313
-338
-289
-175
-86
-95
-171
-221
-196
-150
-168
-262
-363
-408
-397
-372
-353
-332
-317
-340
-411
-497
-549
-561
-581
-644
-732
-790
-789
-747
-700
-670
-653
-644
-644
-654
-668
-673
-671
-665
-661
-659
-654
-645
-628
-608
-594
-591
-590
-577
-551
-532
-532
-532
-498
-425
-345
-285
-220
-92
132
419
714
996
1292
1632
2003
2369
2711
3041
3355
3606
3737
3728
3604
3387
3060
2585
1960
1239
491
-234
-914
-1531
-2067
-2506
-2847
-3088
-3219
-3227
-3130
-2978
-2819
-2669
-2500
-2285
-2033
-1792
-1609
-1489
-1392
-1273
-1136
-1020
-962
-949
-935
-888
-823
-778
-771
-784
-793
-787
-772
-760
-753
-744
-726
-705
-690
-689
-693
-687
-670
-663
-676
-689
-661
-580
-481
-414
-388
-367
-317
-250
-206
-209
-243
-273
-281
-276
-275
-284
-288
-278
-263
-260
-270
-274
-257
-240
-254
-298
-315
-255
-139
-59
-77
-153
-194
-163
-122
-149
-247
-343
-381
-370
-348
-327
-303
-288
-317
-397
-486
-534
-545
-567
-634
-721
-774
-769
-727
-682
-654
-639
-634
-638
-650
-662
-667
-664
-659
-653
-647
-641
-633
-618
-596
-579
-572
-570
-556
-531
-513
-513
-512
-478
-406
-330
-271
-202
-67
159
443
734
1016
1318
1664
2038
2404
2745
3073
3380
3622
3743
3726
3593
3362
3018
2527
1891
1166
418
-305
-982
-1596
-2125
-2554
-2879
-3105
-3220
-3216
-3110
-2952
-2792
-2641
-2469
-2251
-1999
-1764
-1593
-1483
-1387
-1263
-1121
-1008
-958
-950
-935
-883
-818
-779
-779
-794
-802
-794
-781
-771
-764
-754
-738
-722
-713
-714
-716
-708
-692
-691
-711
-724
-689
-601
-504
-447
-431
-410
-353
-280
-239
-251
-291
-319
-318
-309
-311
-324
-331
-320
-304
-303
-316
-319
-300
-283
-299
-341
-350
-280
-163
-93
-123
-202
-239
-205
-169
-205
-305
-398
-432
-418
-393
-370
-345
-335
-372
-454
-537
-578
-586
-613
-682
-764
-805
-787
-739
-697
-672
-659
-651
-654
-670
-688
-696
-693
-684
-677
-671
-666
-655
-636
-614
-602
-602
-600
-582
-553
-534
-535
-530
-487
-407
-329
-271
-200
-57
182
474
767
1048
1349
1696
2069
2433
2773
3099
3400
3627
3728
3691
3542
3301
2944
2437
1789
1056
310
-406
-1072
-1673
-2191
-2609
-2924
-3136
-3237
-3220
-3107
-2948
-2787
-2633
-2456
-2233
-1979
-1747
-1582
-1475
-1380
-1256
-1118
-1014
-973
-969
-948
-888
-819
-782
-786
-804
-811
-799
-785
-778
-774
-762
-738
-714
-705
-711
-715
-702
-682
-681
-703
-712
-667
-572
-477
-425
-408
-380
-317
-249
-217
-232
-265
-286
-290
-290
-297
-305
-303
-292
-285
-290
-298
-289
-267
-257
-284
-323
-317
-236
-126
-77
-120
-194
-213
-173
-146
-195
-296
-377
-400
-384
-362
-340
-316
-312
-357
-443
-521
-554
-562
-597
-676
-756
-789
-766
-716
-674
-649
-636
-631
-637
-649
-659
-660
-656
-652
-646
-638
-629
-619
-606
-591
-580
-577
-571
-552
-524
-507
-506
-496
-450
-373
-300
-242
-161
-6
239
530
819
1102
1411
1768
2148
2514
2853
3175
3466
3680
3765
3712
3546
3283
2902
2374
1712
977
233
-474
-1130
-1717
-2219
-2620
-2921
-3119
-3205
-3174
-3052
-2891
-2732
-2576
-2391
-2158
-1902
-1677
-1520
-1416
-1315
-1185
-1048
-952
-919
-914
-888
-825
-759
-728
-736
-755
-759
-745
-731
-725
-724
-713
-691
-669
-661
-667
-671
-661
-646
-652
-675
-680
-629
-533
-443
-398
-380
-345
-277
-210
-188
-212
-250
-269
-268
-266
-274
-285
-283
-269
-257
-261
-270
-262
-240
-233
-263
-304
-294
-205
-96
-56
-108
-180
-192
-147
-126
-183
-286
-361
-376
-357
-333
-310
-285
-286
-338
-428
-504
-535
-548
-590
-669
-745
-772
-749
-704
-666
-642
-627
-623
-632
-646
-655
-654
-648
-643
-637
-628
-616
-602
-583
-565
-554
-552
-547
-528
-503
-491
-496
-488
-439
-359
-285
-227
-145
20
276
574
864
1146
1456
1814
2195
2560
2898
3217
3502
3701
3767
3698
3521
3249
2853
2307
1630
885
141
-562
-1207
-1782
-2274
-2669
-2963
-3149
-3218
-3170
-3039
-2875
-2716
-2557
-2368
-2132
-1876
-1657
-1508
-1410
-1308
-1174
-1036
-944
-916
-913
-885
-821
-758
-733
-745
-762
-763
-746
-730
-721
-714
-700
-679
-663
-661
-667
-667
-654
-643
-655
-681
-679
-618
-518
-433
-393
-376
-339
-273
-214
-199
-223
-258
-274
-275
-273
-280
-286
-282
-269
-261
-266
-273
-265
-245
-241
-271
-307
-289
-197
-93
-59
-112
-177
-184
-143
-133
-198
-301
-374
-388
-370
-347
-325
-305
-314
-372
-459
-525
-548
-561
-608
-689
-760
-781
-752
-704
-667
-646
-637
-636
-643
-652
-660
-662
-660
-655
-646
-637
-632
-623
-605
-583
-571
-571
-566
-542
-511
-496
-499
-486
-430
-345
-269
-210
-119
59
325
624
910
1192
1508
1873
2253
2610
2941
3256
3535
3722
3770
3684
3495
3213
2802
2236
1543
797
64
-625
-1265
-1842
-2329
-2709
-2981
-3149
-3207
-3153
-3016
-2847
-2684
-2523
-2333
-2097
-1845
-1635
-1496
-1402
-1298
-1162
-1028
-949
-932
-930
-891
-818
-756
-739
-756
-771
-767
-750
-739
-736
-731
-716
-694
-678
-675
-677
-674
-661
-653
-665
-686
-676
-610
-510
-428
-391
-373
-334
-268
-210
-194
-217
-251
-268
-269
-267
-273
-280
-277
-266
-258
-262
-267
-259
-242
-243
-274
-303
-276
-180
-83
-62
-121
-181
-177
-132
-126
-199
-305
-373
-380
-355
-327
-302
-284
-298
-362
-448
-510
-530
-545
-595
-679
-748
-762
-726
-677
-641
-622
-614
-612
-619
-630
-639
-642
-639
-632
-624
-617
-613
-603
-584
-562
-550
-549
-543
-523
-500
-492
-494
-474
-413
-330
-263
-205
-103
92
369
668
950
1231
1555
1926
2307
2664
2995
3308
3577
3747
3778
3680
3481
3183
2751
2167
1464
714
-22
-711
-1344
-1905
-2375
-2739
-2998
-3152
-3193
-3125
-2981
-2814
-2656
-2496
-2300
-2057
-1803
-1598
-1466
-1373
-1264
-1124
-996
-925
-911
-903
-860
-793
-744
-735
-748
-755
-749
-739
-733
-728
-717
-698
-679
-667
-665
-664
-658
-646
-643
-659
-676
-656
-584
-489
-416
-382
-358
-311
-244
-193
-185
-213
-247
-263
-262
-258
-263
-269
-268
-257
-249
-253
-259
-251
-235
-236
-269
-295
-260
-157
-62
-51
-115
-172
-161
-119
-125
-207
-312
-371
-373
-349
-324
-299
-282
-301
-370
-457
-514
-532
-551
-607
-691
-752
-760
-726
-681
-649
-629
-618
-617
-626
-640
-649
-651
-647
-639
-630
-624
-621
-611
-590
-568
-557
-556
-549
-526
-501
-494
-496
-473
-409
-327
-261
-200
-87
120
401
695
972
1258
1591
1967
2345
2692
3017
3327
3592
3748
3760
3643
3430
3119
2670
2068
1354
604
-123
-803
-1426
-1978
-2436
-2788
-3035
-3173
-3196
-3112
-2963
-2798
-2642
-2479
-2275
-2026
-1776
-1582
-1459
-1370
-1257
-1115
-989
-929
-923
-918
-870
-797
-747
-741
-758
-767
-757
-743
-736
-733
-725
-707
-687
-675
-674
-674
-667
-654
-653
-671
-686
-658
-578
-481
-413
-386
-363
-314
-246
-199
-197
-228
-259
-269
-266
-264
-273
-281
-277
-267
-262
-269
-270
-254
-236
-247
-289
-312
-263
-154
-69
-76
-147
-193
-169
-126
-145
-237
-335
-378
-367
-341
-321
-300
-286
-307
-379
-468
-525
-543
-564
-622
-703
-758
-759
-717
-669
-635
-618
-612
-615
-625
-635
-640
-639
-635
-629
-620
-613
-606
-591
-568
-547
-541
-543
-535
-508
-483
-480
-486
-461
-391
-308
-245
-183
-63
157
446
742
1019
1308
1647
2026
2401
2745
3069
3378
3631
3766
3758
3629
3409
3084
2614
1990
1265
515
-208
-884
-1503
-2044
-2489
-2828
-3063
-3189
-3197
-3100
-2943
-2777
-2621
-2453
-2242
-1990
-1746
-1564
-1448
-1355
-1236
-1095
-980
-926
-916
-900
-847
-779
-737
-734
-746
-751
-743
-734
-728
-721
-708
-690
-675
-668
-668
-667
-656
-641
-640
-657
-666
-632
-549
-457
-397
-373
-348
-294
-225
-181
-182
-210
-236
-240
-235
-235
-248
-257
-253
-240
-234
-239
-239
-221
-203
-214
-252
-267
-208
-98
-24
-45
-120
-160
-129
-89
-116
-211
-304
-340
-327
-302
-281
-258
-246
-278
-360
-452
-504
-517
-540
-604
-688
-740
-731
-683
-633
-604
-595
-595
-601
-610
-619
-624
-625
-622
-615
-604
-595
-587
-572
-550
-531
-524
-523
-510
-481
-457
-453
-453
-419
-345
-264
-204
-138
-7
223
514
805
1080
1373
1719
2100
2469
2807
3129
3436
3681
3802
3777
3635
3402
3061
2571
1932
1203
458
-257
-928
-1542
-2072
-2498
-2818
-3040
-3156
-3154
-3046
-2884
-2720
-2572
-2407
-2191
-1936
-1698
-1527
-1419
-1324
-1197
-1055
-949
-907
-901
-880
-823
-759
-725
-727
-740
-744
-736
-727
-719
-708
-692
-672
-656
-648
-648
-648
-642
-632
-634
-652
-657
-616
-528
-435
-380
-359
-334
-279
-214
-179
-190
-227
-254
-260
-256
-256
-263
-267
-260
-248
-245
-253
-252
-236
-223
-240
-280
-289
-223
-110
-40
-63
-135
-167
-132
-97
-133
-234
-328
-362
-348
-323
-301
-277
-270
-307
-389
-471
-512
-522
-551
-622
-704
-747
-732
-686
-644
-620
-606
-599
-600
-612
-626
-633
-629
-620
-614
-612
-612
-605
-585
-560
-545
-545
-546
-530
-499
-477
-478
-477
-438
-361
-280
-219
-146
-4
233
523
812
1089
1387
1736
2114
2481
2818
3139
3437
3668
3774
3739
3590
3350
2997
2495
1846
1112
365
-348
-1013
-1619
-2143
-2566
-2882
-3095
-3199
-3184
-3070
-2907
-2747
-2598
-2427
-2202
-1940
-1702
-1537
-1435
-1339
-1210
-1067
-964
-927
-922
-898
-836
-769
-736
-741
-758
-764
-755
-745
-739
-732
-718
-699
-681
-673
-672
-671
-663
-652
-654
-669
-671
-625
-536
-444
-388
-366
-339
-284
-220
-187
-199
-236
-261
-262
-254
-256
-269
-275
-265
-248
-243
-252
-254
-239
-227
-245
-287
-294
-224
-111
-48
-81
-157
-185
-147
-115
-159
-265
-357
-385
-365
-338
-317
-297
-294
-334
-414
-492
-530
-543
-577
-650
-731
-768
-748
-698
-655
-631
-620
-614
-616
-627
-641
-650
-648
-638
-627
-622
-621
-615
-595
-565
-546
-545
-547
-531
-499
-475
-474
-472
-432
-355
-277
-219
-144
7
253
549
837
1114
1419
1777
2160
2524
2858
3178
3476
3698
3788
3736
3575
3325
2958
2438
1775
1038
295
-411
-1070
-1667
-2179
-2586
-2888
-3090
-3185
-3164
-3048
-2886
-2724
-2570
-2393
-2168
-1913
-1683
-1522
-1418
-1319
-1190
-1051
-955
-923
-920
-894
-830
-765
-737
-747
-764
-767
-756
-746
-739
-730
-713
-691
-673
-667
-669
-667
-655
-644
-651
-672
-673
-622
-528
-436
-386
-366
-335
-273
-203
-169
-184
-222
-247
-249
-244
-249
-264
-269
-258
-243
-244
-255
-253
-234
-222
-246
-288
-286
-205
-94
-44
-87
-160
-177
-135
-112
-165
-267
-344
-362
-345
-325
-305
-282
-278
-326
-417
-499
-535
-543
-577
-653
-732
-764
-741
-691
-649
-627
-619
-617
-622
-634
-646
-652
-652
-645
-637
-631
-628
-621
-604
-580
-565
-563
-560
-542
-514
-499
-500
-490
-441
-361
-288
-232
-150
13
266
559
844
1124
1435
1797
2180
2544
2881
3203
3494
3699
3771
3710
3543
3284
2900
2361
1686
946
207
-495
-1149
-1741
-2247
-2649
-2943
-3132
-3210
-3174
-3047
-2881
-2718
-2561
-2379
-2150
-1893
-1668
-1514
-1415
-1318
-1188
-1051
-958
-927
-920
-890
-826
-765
-741
-749
-763
-765
-756
-746
-737
-726
-709
-689
-674
-668
-669
-669
-660
-652
-660
-677
-672
-614
-517
-430
-384
-365
-331
-268
-204
-179
-199
-235
-255
-255
-251
-257
-269
-272
-262
-251
-253
-260
-253
-230
-220
-245
-282
-269
-179
-69
-28
-78
-148
-159
-117
-102
-164
-269
-342
-353
-330
-307
-286
-265
-268
-321
-408
-480
-506
-515
-554
-634
-711
-737
-709
-662
-625
-606
-594
-587
-588
-600
-614
-622
-621
-614
-605
-600
-597
-587
-564
-536
-520
-519
-519
-501
-473
-458
-461
-453
-406
-329
-257
-200
-112
59
317
612
899
1183
1499
1863
2242
2601
2934
3253
3539
3738
3800
3726
3546
3274
2876
2324
1640
894
152
-549
-1197
-1777
-2266
-2651
-2934
-3117
-3187
-3139
-3004
-2838
-2681
-2529
-2344
-2104
-1841
-1620
-1476
-1382
-1279
-1141
-1005
-922
-904
-904
-871
-802
-742
-722
-735
-746
-743
-728
-717
-711
-705
-691
-673
-660
-656
-656
-654
-645
-640
-652
-670
-660
-598
-503
-423
-385
-367
-330
-265
-205
-186
-209
-247
-266
-265
-260
-268
-282
-283
-268
-251
-250
-260
-257
-236
-227
-254
-291
-277
-184
-76
-42
-99
-170
-176
-132
-121
-191
-298
-368
-375
-350
-326
-303
-281
-286
-343
-432
-502
-527
-539
-585
-666
-738
-757
-724
-675
-640
-621
-612
-608
-614
-627
-640
-644
-640
-632
-626
-623
-621
-609
-586
-562
-551
-552
-547
-524
-495
-485
-492
-479
-422
-339
-270
-214
-121
61
329
624
907
1189
1509
1876
2254
2610
2943
3263
3545
3729
3774
3688
3502
3222
2810
2243
1550
804
66
-630
-1272
-1842
-2321
-2698
-2974
-3145
-3199
-3139
-2999
-2834
-2678
-2519
-2326
-2084
-1829
-1619
-1479
-1384
-1281
-1149
-1021
-942
-920
-912
-877
-813
-757
-737
-748
-763
-766
-756
-743
-732
-724
-710
-692
-674
-667
-669
-671
-664
-657
-665
-680
-667
-602
-504
-424
-385
-366
-326
-261
-204
-191
-216
-251
-266
-264
-263
-272
-282
-278
-261
-248
-252
-262
-254
-233
-229
-262
-298
-274
-175
-73
-54
-118
-181
-174
-127
-125
-203
-307
-365
-365
-345
-326
-304
-280
-291
-358
-453
-519
-535
-545
-595
-681
-749
-761
-725
-680
-648
-630
-619
-616
-624
-638
-646
-644
-637
-630
-624
-619
-612
-599
-578
-558
-548
-547
-540
-518
-494
-486
-488
-467
-404
-320
-252
-194
-93
99
371
666
951
1240
1570
1942
2319
2672
3005
3324
3597
3765
3790
3689
3492
3197
2766
2181
1481
736
3
-689
-1328
-1890
-2357
-2719
-2983
-3143
-3187
-3116
-2970
-2804
-2648
-2489
-2290
-2042
-1789
-1587
-1458
-1365
-1254
-1114
-986
-915
-899
-890
-848
-780
-728
-716
-731
-744
-742
-731
-720
-711
-700
-684
-666
-654
-650
-649
-642
-628
-623
-639
-657
-638
-563
-464
-393
-365
-348
-301
-228
-173
-167
-197
-229
-237
-232
-233
-246
-256
-249
-232
-226
-240
-251
-240
-218
-222
-263
-297
-260
-152
-53
-41
-105
-158
-143
-101
-112
-197
-299
-353
-353
-334
-315
-289
-268
-284
-355
-446
-505
-519
-533
-589
-676
-739
-743
-703
-656
-627
-612
-602
-597
-603
-617
-627
-627
-622
-616
-612
-607
-599
-583
-562
-546
-543
-544
-533
-504
-476
-468
-470
-447
-383
-300
-233
-171
-64
133
408
705
992
1286
1620
1992
2366
2716
3045
3359
3624
3779
3793
3681
3474
3167
2722
2125
1417
668
-64
-751
-1381
-1937
-2397
-2753
-3006
-3153
-3184
-3105
-2959
-2794
-2637
-2471
-2266
-2019
-1773
-1581
-1457
-1364
-1252
-1113
-990
-927
-916
-907
-858
-785
-733
-727
-746
-756
-747
-729
-719
-715
-708
-690
-668
-655
-656
-661
-655
-639
-632
-648
-665
-640
-560
-460
-392
-366
-347
-299
-229
-179
-176
-205
-234
-244
-242
-243
-253
-260
-253
-239
-235
-245
-249
-234
-213
-220
-260
-286
-240
-131
-45
-49
-120
-167
-146
-104
-123
-213
-310
-354
-345
-321
-299
-272
-252
-273
-346
-434
-486
-500
-522
-588
-675
-730
-727
-686
-644
-617
-600
-589
-588
-599
-614
-621
-620
-617
-615
-611
-604
-594
-579
-560
-544
-538
-536
-525
-502
-480
-475
-473
-443
-375
-295
-230
-163
-42
169
447
740
1022
1316
1655
2029
2401
2747
3073
3382
3636
3779
3781
3659
3441
3119
2656
2044
1326
574
-156
-836
-1454
-1994
-2442
-2788
-3033
-3168
-3182
-3091
-2941
-2780
-2629
-2463
-2250
-1994
-1744
-1553
-1431
-1337
-1221
-1082
-961
-901
-891
-882
-836
-767
-718
-711
-727
-739
-734
-721
-713
-709
-701
-682
-659
-646
-647
-652
-645
-628
-623
-641
-658
-629
-543
-443
-380
-360
-341
-288
-217
-172
-177
-211
-239
-245
-242
-245
-254
-257
-247
-235
-234
-244
-241
-219
-201
-218
-264
-283
-224
-109
-32
-50
-126
-168
-139
-100
-129
-226
-321
-358
-344
-321
-301
-276
-259
-286
-367
-459
-510
-521
-542
-609
-698
-750
-742
-697
-653
-626
-612
-602
-603
-615
-630
-637
-635
-630
-626
-621
-614
-604
-587
-565
-546
-537
-532
-519
-495
-476
-472
-467
-432
-361
-283
-222
-156
-30
188
471
765
1048
1345
1684
2057
2429
2777
3107
3413
3654
3776
3761
3629
3403
3068
2586
1954
1226
476
-244
-912
-1520
-2053
-2490
-2824
-3052
-3169
-3171
-3072
-2919
-2755
-2599
-2426
-2211
-1957
-1716
-1536
-1421
-1328
-1209
-1069
-953
-900
-892
-877
-823
-752
-709
-709
-729
-738
-729
-714
-707
-703
-692
-670
-648
-641
-646
-650
-640
-621
-619
-641
-657
-623
-536
-438
-378
-357
-334
-279
-209
-167
-173
-204
-228
-232
-229
-233
-243
-245
-234
-221
-218
-225
-223
-203
-188
-205
-246
-257
-191
-78
-6
-25
-95
-130
-101
-69
-101
-196
-289
-328
-321
-300
-275
-247
-237
-274
-356
-438
-478
-487
-515
-585
-668
-714
-706
-665
-623
-594
-575
-568
-575
-589
-600
-599
-593
-588
-586
-581
-574
-563
-547
-528
-512
-505
-502
-488
-466
-449
-448
-443
-405
-333
-257
-196
-123
17
248
535
826
1106
1406
1753
2130
2498
2839
3161
3459
3691
3802
3776
3634
3396
3044
2543
1898
1165
417
-299
-964
-1567
-2089
-2512
-2831
-3047
-3154
-3145
-3037
-2877
-2713
-2559
-2388
-2169
-1912
-1671
-1497
-1389
-1296
-1173
-1030
-920
-877
-874
-856
-798
-731
-698
-706
-726
-732
-722
-710
-704
-698
-682
-658
-638
-632
-636
-637
-625
-610
-615
-641
-653
-613
-522
-429
-378
-363
-339
-278
-205
-165
-177
-214
-242
-246
-243
-249
-262
-268
-260
-249
-249
-258
-255
-235
-222
-242
-282
-285
-211
-99
-39
-73
-149
-180
-148
-120
-162
-260
-345
-373
-358
-334
-312
-291
-287
-328
-410
-488
-526
-539
-571
-642
-719
-756
-741
-698
-657
-629
-613
-607
-613
-627
-637
-640
-637
-634
-630
-625
-620
-612
-596
-574
-558
-554
-552
-537
-508
-487
-483
-478
-438
-363
-283
-222
-146
-1
237
530
824
1107
1411
1764
2145
2514
2853
3173
3467
3688
3782
3738
3583
3336
2974
2460
1802
1064
317
-393
-1050
-1645
-2160
-2574
-2883
-3087
-3179
-3158
-3043
-2884
-2722
-2566
-2389
-2167
-1913
-1680
-1513
-1408
-1314
-1191
-1051
-946
-906
-902
-883
-824
-757
-723
-730
-748
-753
-741
-727
-717
-709
-694
-674
-657
-650
-649
-645
-631
-618
-623
-643
-645
-596
-503
-413
-365
-346
-317
-256
-191
-162
-178
-214
-239
-244
-242
-249
-259
-259
-247
-236
-239
-250
-246
-225
-213
-237
-277
-274
-192
-79
-25
-64
-137
-159
-122
-98
-148
-250
-332
-355
-336
-310
-285
-264
-265
-314
-400
-477
-511
-524
-560
-635
-711
-742
-720
-672
-630
-604
-592
-588
-595
-608
-619
-624
-623
-621
-618
-612
-604
-591
-570
-547
-532
-529
-525
-508
-482
-468
-471
-465
-419
-339
-263
-204
-125
33
285
583
875
1156
1461
1817
2197
2563
2900
3220
3509
3721
3801
3745
3577
3315
2933
2401
1733
993
249
-457
-1110
-1696
-2195
-2592
-2888
-3084
-3170
-3140
-3016
-2851
-2688
-2533
-2355
-2126
-1867
-1637
-1479
-1382
-1288
-1158
-1016
-916
-886
-886
-863
-799
-735
-709
-722
-740
-741
-726
-714
-709
-702
-684
-661
-644
-641
-645
-642
-626
-615
-625
-649
-647
-588
-489
-403
-361
-342
-305
-237
-171
-147
-166
-199
-218
-219
-216
-221
-230
-232
-225
-216
-217
-221
-212
-193
-188
-215
-251
-237
-148
-41
-1
-51
-120
-130
-88
-69
-127
-230
-306
-321
-302
-278
-256
-237
-242
-297
-385
-456
-484
-497
-540
-619
-691
-715
-690
-645
-609
-588
-579
-579
-586
-597
-606
-610
-612
-608
-597
-585
-578
-572
-558
-537
-522
-520
-519
-505
-479
-463
-462
-449
-395
-312
-237
-181
-98
69
328
625
911
1188
1499
1862
2246
2611
2944
3258
3537
3734
3799
3731
3553
3279
2879
2329
1649
905
163
-537
-1182
-1758
-2250
-2640
-2925
-3104
-3169
-3122
-2990
-2826
-2667
-2513
-2328
-2093
-1835
-1614
-1468
-1374
-1273
-1135
-993
-904
-882
-881
-849
-780
-720
-702
-717
-729
-725
-711
-706
-705
-699
-681
-659
-647
-649
-654
-650
-634
-624
-634
-653
-642
-577
-482
-404
-367
-348
-309
-245
-187
-170
-191
-226
-247
-251
-249
-255
-263
-263
-253
-243
-244
-248
-241
-225
-224
-254
-286
-263
-168
-66
-38
-94
-159
-163
-122
-114
-181
-284
-352
-361
-339
-314
-291
-272
-284
-344
-432
-498
-522
-535
-579
-656
-723
-742
-712
-663
-624
-602
-594
-595
-602
-612
-621
-628
-631
-627
-617
-608
-602
-594
-576
-552
-538
-537
-535
-514
-483
-467
-469
-457
-401
-315
-240
-181
-91
88
356
656
942
1222
1538
1905
2287
2646
2976
3291
3568
3752
3797
3710
3519
3233
2817
2245
1548
798
61
-631
-1270
-1841
-2321
-2695
-2963
-3128
-3181
-3122
-2981
-2813
-2655
-2497
-2304
-2061
-1803
-1593
-1460
-1370
-1266
-1127
-994
-918
-902
-896
-856
-786
-730
-718
-735
-747
-744
-732
-726
-722
-711
-690
-669
-658
-657
-657
-648
-632
-627
-643
-664
-648
-576
-476
-400
-368
-351
-309
-242
-185
-170
-194
-227
-243
-244
-244
-252
-261
-260
-249
-241
-243
-247
-238
-221
-220
-249
-275
-243
-145
-49
-31
-92
-153
-147
-103
-101
-176
-279
-339
-339
-312
-289
-270
-255
-270
-333
-423
-490
-513
-527
-572
-651
-717
-731
-696
-646
-610
-590
-581
-580
-587
-599
-608
-610
-606
-597
-587
-579
-571
-558
-538
-519
-511
-513
-507
-484
-459
-452
-457
-436
-369
-282
-213
-157
-57
137
414
715
1000
1285
1611
1982
2360
2712
3040
3352
3619
3784
3807
3703
3502
3203
2766
2172
1460
708
-23
-707
-1338
-1900
-2367
-2724
-2978
-3130
-3171
-3103
-2958
-2791
-2636
-2479
-2283
-2036
-1783
-1584
-1460
-1368
-1253
-1105
-973
-905
-894
-884
-836
-766
-719
-716
-732
-739
-731
-720
-716
-711
-695
-672
-652
-645
-647
-645
-634
-618
-614
-631
-646
-624
-548
-452
-380
-350
-331
-288
-224
-174
-166
-195
-227
-239
-233
-228
-236
-247
-247
-234
-225
-230
-237
-229
-211
-212
-244
-270
-230
-123
-27
-20
-90
-147
-133
-87
-94
-179
-282
-333
-325
-297
-275
-256
-241
-259
-327
-414
-471
-485
-499
-553
-636
-699
-705
-666
-619
-587
-570
-562
-563
-572
-585
-593
-594
-592
-588
-582
-575
-567
-555
-536
-519
-512
-511
-502
-477
-453
-447
-448
-422
-357
-278
-218
-161
-50
155
436
731
1013
1303
1638
2011
2385
2732
3059
3372
3633
3782
3790
3676
3467
3157
2705
2100
1388
641
-86
-768
-1395
-1946
-2398
-2746
-2992
-3134
-3161
-3080
-2931
-2767
-2612
-2448
-2244
-1996
-1749
-1556
-1432
-1336
-1220
-1080
-960
-900
-890
-879
-832
-764
-718
-712
-725
-730
-720
-705
-698
-692
-682
-663
-643
-632
-631
-632
-624
-611
-608
-623
-634
-606
-527
-432
-363
-331
-305
-255
-188
-140
-137
-167
-199
-212
-210
-209
-218
-225
-218
-203
-195
-201
-206
-193
-175
-184
-224
-247
-196
-84
3
-4
-78
-129
-110
-69
-88
-179
-278
-324
-317
-292
-268
-242
-225
-249
-324
-414
-467
-479
-498
-562
-652
-714
-714
-670
-622
-591
-576
-569
-569
-577
-588
-596
-596
-593
-587
-579
-572
-565
-552
-535
-520
-514
-513
-501
-476
-455
-452
-450
-417
-346
-267
-206
-141
-14
207
491
783
1060
1354
1695
2071
2443
2789
3118
3429
3680
3812
3802
3675
3456
3130
2658
2034
1312
564
-159
-835
-1453
-1993
-2434
-2770
-3004
-3131
-3141
-3046
-2893
-2731
-2579
-2412
-2199
-1945
-1703
-1524
-1410
-1315
-1193
-1051
-936
-885
-877
-859
-806
-740
-701
-701
-717
-723
-713
-699
-689
-682
-670
-652
-632
-621
-621
-623
-617
-604
-601
-616
-627
-594
-511
-416
-355
-333
-311
-258
-188
-145
-150
-188
-221
-230
-226
-227
-237
-244
-235
-221
-217
-227
-230
-213
-195
-209
-254
-271
-209
-91
-11
-31
-111
-154
-124
-83
-113
-212
-309
-345
-329
-303
-283
-260
-247
-275
-352
-439
-486
-495
-517
-585
-673
-725
-715
-665
-617
-590
-580
-574
-574
-583
-597
-608
-609
-605
-599
-592
-586
-575
-558
-536
-521
-518
-516
-502
-477
-460
-462
-458
-417
-339
-260
-202
-135
0
229
515
802
1079
1378
1728
2109
2481
2823
3147
3449
3684
3795
3766
3622
3386
3036
2535
1888
1157
413
-301
-970
-1582
-2111
-2535
-2849
-3063
-3172
-3166
-3059
-2897
-2731
-2575
-2401
-2179
-1923
-1689
-1523
-1416
-1318
-1191
-1051
-948
-908
-899
-870
-805
-740
-709
-711
-715
-709
-703
-707
-706
-685
-655
-645
-657
-654
-600
-505
-422
-381
-368
-339
-277
-212
-181
-191
-217
-235
-242
-247
-252
-253
-249
-242
-238
-232
-219
-205
-201
-208
-216
-218
-219
-226
-232
-224
-202
-189
-203
-231
-229
-170
-80
-10
16
28
68
139
199
208
171
128
109
109
105
90
81
89
102
97
75
73
120
205
278
304
302
322
381
444
469
451
419
393
367
336
316
326
340
314
235
143
89
72
44
-21
-101
-151
-157
-144
-124
-95
-63
-66
-136
-246
-332
-362
-378
-431
-516
-571
-559
-524
-532
-597
-667
-700
-710
-746
-820
-891
-914
-886
-846
-824
-818
-812
-799
-785
-778
-778
-780
-784
-791
-797
-795
-783
-764
-744
-730
-726
-728
-731
-733
-731
-725
-714
-700
-686
-678
-677
-678
-677
-676
-676
-675
-670
-660
-649
-643
-642
-641
-635
-628
-624
-624
-623
-617
-609
-603
-602
-602
-599
-594
-590
-587
-584
-580
-575
-573
-571
-569
-565
-563
-563
-563
-561
-555
-549
-544
-541
-536
-530
-527
-528
-531
-532
-529
-523
-521
-520
-521
-518
-514
-509
-505
-503
-499
-494
-489
-484
-480
-478
-476
-475
-472
-468
-465
-464
-464
-463
-460
-456
-453
-451
-450
-447
-443
-439
-439
-438
-435
-429
-424
-424
-428
-431
-430
-426
-422
-422
-423
-422
-419
-416
-414
-411
-408
-405
-405
-408
-409
-407
-403
-400
-401
-403
-404
-402
-402
-404
-406
-404
-399
-394
-395
-398
-399
-394
-387
-385
-387
-389
-386
-381
-380
-384
-386
-381
-374
-371
-375
-380
-379
-373
-369
-372
-379
-380
-376
-370
-370
-374
-376
-373
-371
-372
-377
-380
-377
-373
-372
-375
-376
-373
-369
-368
-372
-375
-373
-368
-365
-364
-362
-358
-354
-354
-356
-355
-349
-344
-344
-348
-351
-349
-347
-346
-348
-349
-347
-344
-342
-342
-343
-342
-342
-343
-345
-347
-348
-349
-351
-353
-351
-349
-347
-348
-348
-345
-340
-338
-339
-341
-339
-333
-328
-326
-327
-328
-327
-325
-326
-328
-328
-323
-315
-311
-312
-311
-305
-299
-300
-307
-310
-301
-293
-302
-321
-316
-260
-170
-92
-55
-39
-3
61
120
136
109
70
48
45
44
34
24
26
38
44
32
16
20
41
48
16
-23
-6
90
197
225
163
90
85
128
136
61
-49
-118
-123
-103
-88
-76
-59
-64
-121
-216
-294
-323
-332
-373
-454
-530
-554
-523
-475
-441
-426
-418
-414
-419
-434
-449
-456
-454
-448
-442
-438
-434
-422
-403
-384
-379
-383
-381
-361
-335
-327
-334
-323
-269
-188
-116
-57
37
217
480
772
1054
1338
1658
2023
2398
2752
3083
3403
3684
3869
3917
3835
3650
3368
2954
2385
1693
947
209
-488
-1132
-1705
-2189
-2569
-2846
-3018
-3076
-3022
-2889
-2727
-2571
-2413
-2221
-1984
-1733
-1524
-1383
-1284
-1177
-1042
-911
-833
-815
-809
-768
-695
-636
-621
-637
-646
-641
-634
-635
-629
-611
-593
-594
-601
-578
-504
-408
-337
-309
-293
-253
-188
-132
-116
-138
-171
-193
-202
-205
-207
-209
-211
-210
-204
-190
-172
-164
-172
-187
-194
-195
-199
-210
-217
-206
-186
-183
-207
-225
-197
-117
-29
24
43
68
126
197
236
222
178
143
132
131
121
107
104
116
123
112
95
111
173
255
307
317
318
353
418
470
478
452
420
395
369
344
337
349
346
293
201
120
84
68
28
-47
-120
-155
-153
-134
-107
-71
-51
-86
-182
-288
-348
-365
-394
-465
-544
-569
-542
-521
-555
-626
-680
-701
-722
-777
-851
-897
-893
-858
-828
-815
-806
-792
-776
-768
-767
-768
-769
-772
-780
-785
-778
-758
-733
-714
-705
-705
-708
-710
-710
-707
-700
-689
-679
-671
-668
-668
-666
-664
-660
-657
-652
-645
-638
-633
-631
-629
-625
-620
-619
-618
-615
-608
-600
-596
-597
-597
-594
-588
-584
-583
-581
-577
-573
-570
-568
-564
-560
-559
-561
-563
-558
-548
-541
-539
-537
-532
-524
-520
-520
-520
-517
-512
-510
-510
-510
-507
-503
-501
-501
-501
-500
-497
-494
-491
-489
-489
-487
-483
-478
-475
-476
-477
-476
-472
-467
-465
-463
-459
-455
-455
-456
-454
-449
-444
-444
-446
-446
-442
-438
-437
-437
-433
-428
-424
-424
-424
-422
-417
-416
-418
-419
-417
-413
-410
-409
-408
-406
-404
-402
-400
-397
-393
-390
-390
-391
-390
-386
-381
-379
-381
-382
-380
-374
-370
-369
-370
-369
-366
-364
-363
-363
-360
-355
-354
-356
-358
-355
-349
-344
-345
-349
-350
-348
-346
-346
-347
-347
-345
-342
-339
-338
-338
-339
-338
-336
-334
-335
-336
-334
-329
-325
-325
-327
-328
-325
-323
-325
-328
-328
-325
-322
-322
-326
-330
-329
-327
-326
-327
-329
-329
-327
-323
-320
-319
-318
-318
-317
-316
-314
-315
-316
-317
-316
-315
-314
-314
-314
-314
-314
-314
-317
-319
-320
-319
-318
-319
-322
-323
-321
-317
-316
-319
-322
-322
-320
-318
-318
-320
-316
-307
-300
-303
-309
-308
-298
-292
-299
-310
-309
-294
-288
-305
-321
-295
-216
-124
-68
-54
-38
14
84
127
120
82
48
35
32
26
13
5
11
20
20
9
5
20
34
17
-28
-50
3
113
191
175
99
55
82
121
95
-2
-102
-145
-139
-119
-101
-81
-69
-98
-176
-265
-315
-330
-355
-424
-511
-565
-561
-521
-480
-455
-442
-434
-435
-444
-457
-464
-463
-460
-455
-448
-441
-432
-420
-403
-390
-385
-383
-371
-348
-329
-328
-329
-299
-230
-152
-91
-27
98
317
601
894
1174
1469
1810
2188
2562
2907
3231
3535
3779
3904
3888
3752
3524
3190
2713
2085
1361
613
-105
-776
-1391
-1930
-2371
-2705
-2935
-3057
-3064
-2970
-2817
-2653
-2498
-2329
-2119
-1871
-1631
-1450
-1334
-1241
-1123
-985
-870
-816
-809
-793
-737
-665
-623
-623
-637
-638
-629
-624
-621
-607
-583
-570
-579
-581
-539
-452
-364
-316
-303
-283
-228
-157
-114
-118
-149
-176
-186
-190
-197
-205
-207
-204
-201
-198
-192
-182
-176
-180
-190
-196
-198
-200
-203
-198
-183
-172
-182
-205
-207
-161
-78
-3
35
54
89
153
214
233
204
160
133
131
132
124
111
109
118
120
108
104
137
212
290
328
331
341
388
453
492
485
453
424
401
379
363
366
375
351
279
189
128
105
80
20
-60
-118
-132
-120
-98
-69
-39
-41
-102
-205
-293
-332
-352
-402
-483
-542
-543
-515
-519
-574
-638
-673
-689
-725
-794
-860
-884
-864
-831
-810
-800
-790
-778
-767
-761
-757
-754
-756
-764
-772
-771
-759
-741
-724
-710
-703
-702
-706
-711
-711
-703
-691
-679
-668
-661
-656
-656
-660
-662
-658
-650
-642
-638
-635
-631
-624
-619
-617
-618
-616
-612
-608
-606
-605
-602
-597
-592
-589
-588
-584
-576
-567
-561
-562
-564
-564
-559
-553
-549
-548
-546
-542
-535
-531
-529
-527
-525
-524
-523
-523
-522
-518
-513
-508
-502
-496
-491
-491
-492
-492
-487
-481
-479
-482
-485
-483
-474
-468
-468
-471
-471
-465
-459
-457
-459
-459
-455
-450
-449
-451
-452
-449
-444
-441
-440
-439
-437
-434
-432
-429
-428
-427
-426
-426
-424
-421
-418
-416
-416
-417
-416
-412
-407
-403
-402
-402
-402
-399
-396
-393
-392
-391
-387
-384
-383
-384
-384
-380
-374
-373
-377
-379
-376
-369
-365
-367
-370
-369
-363
-359
-359
-362
-361
-357
-354
-355
-356
-354
-351
-351
-355
-360
-361
-359
-356
-355
-354
-349
-343
-339
-338
-338
-335
-330
-326
-327
-329
-329
-325
-322
-324
-328
-330
-327
-324
-325
-327
-327
-323
-319
-318
-320
-321
-320
-318
-319
-322
-322
-320
-317
-317
-318
-316
-310
-307
-309
-313
-313
-308
-304
-307
-313
-318
-316
-312
-308
-307
-306
-306
-307
-308
-307
-304
-301
-302
-305
-305
-303
-301
-301
-301
-301
-299
-298
-298
-298
-296
-295
-294
-290
-284
-281
-285
-289
-284
-274
-271
-279
-287
-280
-268
-271
-291
-295
-247
-157
-74
-33
-19
10
70
133
156
135
96
71
66
67
59
47
45
56
65
60
47
47
62
65
34
-8
0
85
193
236
189
119
105
143
156
94
-14
-95
-118
-103
-79
-53
-29
-32
-86
-174
-246
-275
-290
-337
-420
-497
-527
-506
-463
-426
-403
-393
-396
-408
-424
-436
-440
-442
-441
-435
-424
-414
-405
-391
-374
-363
-362
-359
-342
-317
-304
-309
-301
-253
-173
-98
-40
43
208
462
756
1042
1322
1632
1993
2374
2735
3066
3379
3662
3863
3933
3865
3686
3413
3020
2479
1804
1057
308
-398
-1048
-1630
-2130
-2528
-2820
-3002
-3072
-3031
-2905
-2741
-2578
-2418
-2235
-2007
-1756
-1536
-1384
-1286
-1189
-1059
-922
-831
-804
-802
-770
-703
-642
-622
-633
-641
-634
-627
-629
-625
-605
-581
-578
-590
-578
-511
-416
-344
-317
-305
-266
-194
-130
-111
-134
-166
-183
-188
-194
-204
-209
-205
-196
-189
-184
-175
-166
-164
-172
-181
-186
-189
-194
-196
-189
-174
-170
-187
-206
-187
-120
-34
25
49
73
127
201
249
243
201
163
152
153
144
128
122
134
144
133
112
120
180
266
326
337
332
358
421
478
490
461
425
398
374
350
339
350
353
311
224
139
95
77
37
-38
-117
-158
-158
-140
-116
-84
-62
-85
-168
-270
-336
-359
-388
-458
-540
-573
-548
-522
-549
-620
-681
-704
-718
-765
-840
-900
-910
-878
-842
-822
-815
-805
-790
-775
-768
-771
-777
-783
-787
-786
-779
-766
-747
-727
-714
-712
-718
-725
-725
-718
-708
-696
-682
-669
-659
-653
-650
-649
-647
-644
-638
-631
-624
-620
-617
-616
-612
-606
-600
-595
-593
-591
-588
-584
-578
-571
-566
-564
-562
-557
-550
-543
-537
-532
-527
-522
-518
-517
-514
-509
-503
-499
-499
-499
-496
-492
-490
-491
-490
-484
-475
-470
-471
-472
-469
-463
-459
-461
-462
-459
-452
-447
-448
-452
-452
-445
-439
-437
-439
-438
-433
-427
-424
-424
-424
-423
-421
-420
-421
-419
-416
-413
-413
-414
-412
-407
-403
-401
-400
-398
-393
-389
-388
-388
-387
-384
-382
-384
-387
-389
-387
-383
-382
-383
-381
-375
-370
-370
-372
-374
-370
-365
-363
-365
-366
-364
-362
-362
-364
-364
-363
-361
-360
-360
-359
-356
-354
-354
-354
-353
-350
-346
-345
-346
-347
-345
-341
-339
-339
-340
-341
-340
-340
-338
-337
-335
-336
-339
-341
-341
-341
-341
-344
-345
-344
-341
-339
-339
-340
-341
-338
-335
-333
-333
-334
-334
-333
-331
-330
-329
-328
-324
-320
-318
-318
-317
-314
-312
-313
-317
-320
-319
-316
-314
-313
-313
-310
-307
-306
-306
-307
-306
-304
-301
-301
-303
-305
-306
-304
-302
-303
-304
-304
-302
-301
-301
-301
-301
-300
-301
-303
-306
-306
-306
-305
-305
-306
-306
-302
-295
-290
-292
-297
-297
-289
-282
-285
-292
-291
-279
-273
-286
-302
-283
-213
-122
-58
-32
-14
30
95
142
145
111
73
52
45
41
32
24
25
34
39
34
30
39
52
44
8
-16
23
124
211
213
145
89
101
141
132
47
-59
-118
-119
-95
-70
-49
-40
-67
-139
-225
-280
-299
-323
-384
-468
-526
-530
-494
-450
-419
-403
-396
-400
-412
-426
-435
-435
-430
-424
-420
-418
-415
-401
-378
-357
-351
-353
-345
-318
-291
-285
-290
-270
-207
-127
-63
-4
107
311
589
881
1160
1446
1777
2150
2525
2874
3201
3510
3766
3912
3918
3800
3585
3266
2806
2194
1476
726
0
-680
-1303
-1852
-2306
-2653
-2897
-3037
-3061
-2978
-2827
-2661
-2506
-2342
-2137
-1887
-1641
-1453
-1335
-1242
-1123
-980
-862
-809
-803
-788
-730
-656
-614
-614
-627
-625
-616
-616
-622
-612
-586
-569
-577
-584
-545
-456
-362
-309
-295
-275
-220
-148
-105
-110
-143
-171
-182
-187
-195
-204
-205
-199
-193
-188
-177
-162
-153
-158
-170
-177
-178
-180
-186
-185
-170
-154
-161
-189
-203
-164
-80
1
42
56
87
153
224
250
222
174
147
146
146
133
120
125
143
146
123
107
139
221
305
341
337
343
394
464
504
494
461
434
411
382
357
355
370
356
288
195
129
106
86
27
-59
-122
-138
-124
-104
-81
-52
-45
-94
-193
-287
-333
-351
-394
-473
-538
-544
-512
-506
-555
-624
-668
-685
-715
-780
-850
-884
-868
-828
-798
-785
-776
-762
-746
-735
-733
-736
-742
-747
-752
-753
-746
-730
-710
-692
-685
-688
-696
-700
-697
-690
-681
-672
-661
-650
-645
-644
-644
-642
-636
-629
-622
-616
-610
-606
-606
-606
-604
-597
-589
-584
-580
-576
-570
-565
-564
-564
-561
-552
-544
-542
-543
-544
-539
-530
-525
-526
-529
-528
-521
-513
-510
-510
-508
-502
-497
-497
-501
-502
-498
-492
-492
-496
-498
-493
-483
-477
-479
-484
-484
-478
-472
-469
-469
-469
-466
-462
-460
-459
-456
-451
-448
-447
-446
-442
-438
-434
-433
-432
-428
-422
-417
-416
-417
-417
-414
-411
-408
-408
-407
-404
-399
-392
-388
-386
-385
-383
-381
-381
-382
-382
-380
-378
-378
-380
-380
-377
-375
-374
-375
-375
-372
-369
-367
-367
-367
-368
-368
-368
-365
-360
-357
-357
-358
-356
-349
-344
-346
-352
-353
-348
-342
-340
-343
-343
-339
-333
-331
-333
-334
-331
-327
-325
-326
-327
-325
-321
-321
-323
-325
-323
-319
-316
-315
-316
-314
-311
-308
-308
-309
-308
-305
-303
-302
-304
-305
-305
-303
-303
-303
-303
-303
-302
-302
-301
-298
-295
-293
-292
-294
-297
-299
-299
-296
-294
-293
-294
-295
-295
-294
-292
-290
-290
-290
-291
-290
-289
-289
-290
-292
-293
-291
-289
-288
-288
-288
-287
-285
-287
-291
-295
-294
-289
-286
-287
-291
-292
-290
-287
-284
-282
-280
-280
-281
-278
-274
-274
-280
-284
-277
-269
-275
-295
-301
-260
-176
-92
-46
-31
-7
49
116
151
138
98
66
57
61
60
49
42
47
57
56
43
38
51
61
41
-2
-9
61
173
233
197
119
87
119
147
101
-3
-93
-123
-109
-86
-65
-45
-42
-86
-170
-250
-289
-302
-336
-409
-488
-525
-506
-460
-422
-403
-396
-391
-391
-401
-415
-425
-425
-416
-405
-402
-406
-404
-387
-361
-345
-347
-353
-341
-312
-292
-292
-288
-245
-165
-86
-28
46
194
436
727
1014
1292
1596
1949
2327
2691
3029
3351
3646
3863
3949
3900
3741
3490
3118
2593
1929
1193
452
-257
-920
-1519
-2030
-2437
-2743
-2951
-3046
-3019
-2893
-2729
-2574
-2429
-2253
-2021
-1758
-1531
-1378
-1280
-1180
-1046
-908
-815
-785
-778
-745
-679
-619
-597
-604
-607
-599
-595
-603
-603
-583
-557
-553
-566
-557
-495
-400
-324
-290
-274
-237
-170
-107
-84
-99
-128
-150
-162
-171
-179
-181
-178
-175
-173
-166
-149
-133
-131
-143
-154
-157
-156
-161
-166
-157
-136
-126
-144
-171
-162
-97
-8
55
77
95
145
222
278
278
239
201
190
191
184
168
161
171
181
171
148
151
206
292
356
373
369
392
452
511
529
507
476
452
428
400
386
397
405
369
282
191
140
124
92
23
-58
-108
-117
-105
-84
-51
-23
-37
-116
-224
-298
-322
-342
-405
-490
-532
-510
-477
-496
-566
-632
-659
-673
-720
-799
-864
-875
-843
-807
-789
-782
-769
-750
-735
-730
-730
-730
-732
-737
-741
-738
-725
-708
-693
-683
-680
-681
-685
-691
-694
-687
-671
-651
-638
-634
-635
-634
-630
-626
-624
-621
-614
-607
-601
-599
-598
-594
-588
-583
-579
-575
-568
-560
-554
-553
-553
-551
-547
-542
-539
-537
-535
-531
-525
-519
-515
-513
-510
-507
-503
-502
-501
-499
-495
-491
-487
-485
-482
-476
-468
-462
-459
-457
-453
-449
-445
-442
-440
-437
-435
-433
-431
-429
-427
-425
-424
-423
-421
-417
-412
-409
-407
-407
-406
-403
-399
-397
-399
-400
-397
-392
-387
-385
-384
-383
-382
-382
-383
-382
-377
-374
-373
-375
-373
-369
-366
-366
-369
-368
-366
-365
-368
-369
-366
-360
-357
-357
-357
-353
-347
-346
-350
-354
-353
-349
-346
-345
-346
-347
-346
-342
-338
-334
-333
-335
-336
-335
-333
-332
-331
-330
-329
-330
-332
-332
-327
-321
-319
-322
-326
-325
-320
-316
-316
-317
-316
-313
-313
-316
-319
-319
-316
-316
-317
-317
-315
-314
-315
-316
-315
-311
-308
-306
-305
-304
-304
-305
-305
-304
-300
-296
-295
-296
-295
-293
-290
-288
-290
-292
-292
-291
-290
-290
-292
-291
-289
-286
-285
-286
-287
-286
-283
-282
-284
-286
-286
-285
-285
-288
-290
-290
-288
-288
-290
-290
-285
-279
-277
-281
-285
-284
-279
-276
-278
-282
-282
-277
-275
-276
-275
-270
-264
-261
-261
-257
-250
-248
-250
-247
-239
-236
-252
-273
-260
-195
-102
-32
-4
9
48
116
174
187
159
122
104
102
98
84
71
72
85
91
78
62
66
85
86
50
13
39
141
243
259
191
126
132
179
179
97
-11
-73
-74
-51
-33
-16
0
-14
-79
-172
-239
-261
-275
-326
-410
-478
-490
-455
-410
-381
-367
-358
-357
-366
-384
-399
-403
-399
-393
-388
-385
-381
-370
-350
-331
-325
-328
-322
-299
-275
-270
-276
-259
-200
-119
-53
6
108
299
567
857
1136
1420
1745
2113
2488
2840
3169
3484
3755
3924
3954
3853
3650
3349
2915
2329
1624
875
140
-550
-1185
-1747
-2215
-2578
-2840
-3000
-3046
-2980
-2838
-2675
-2523
-2368
-2170
-1921
-1666
-1466
-1339
-1246
-1133
-991
-865
-799
-787
-776
-729
-659
-612
-606
-619
-622
-615
-614
-617
-607
-582
-562
-567
-577
-551
-474
-382
-321
-299
-281
-234
-164
-112
-104
-129
-158
-174
-180
-185
-189
-189
-183
-176
-168
-154
-138
-129
-135
-148
-156
-157
-161
-168
-168
-154
-139
-144
-171
-184
-146
-62
20
62
78
108
173
243
272
249
206
180
176
175
161
146
148
162
165
146
131
158
232
315
359
363
369
414
482
528
526
495
463
438
409
386
384
398
388
326
235
164
137
118
65
-17
-87
-113
-107
-89
-64
-32
-18
-59
-153
-250
-300
-317
-354
-432
-504
-519
-488
-474
-516
-588
-639
-659
-688
-751
-825
-864
-853
-818
-793
-782
-770
-752
-736
-731
-732
-733
-733
-738
-749
-753
-742
-721
-700
-686
-679
-678
-678
-680
-681
-677
-668
-654
-643
-636
-632
-630
-629
-630
-632
-630
-623
-614
-608
-607
-608
-606
-600
-594
-589
-588
-586
-579
-571
-565
-564
-565
-565
-560
-553
-548
-545
-542
-538
-533
-529
-527
-524
-521
-517
-514
-512
-512
-511
-507
-501
-495
-492
-491
-490
-484
-476
-469
-467
-469
-469
-465
-459
-455
-456
-459
-456
-449
-441
-437
-437
-436
-432
-427
-423
-422
-420
-417
-413
-412
-413
-413
-411
-407
-403
-401
-400
-400
-398
-397
-395
-393
-392
-389
-386
-382
-380
-379
-376
-372
-369
-367
-367
-365
-363
-361
-361
-362
-360
-357
-356
-358
-360
-360
-357
-352
-349
-347
-345
-344
-344
-344
-343
-339
-336
-333
-333
-331
-328
-324
-323
-324
-326
-326
-325
-325
-325
-325
-324
-320
-316
-314
-314
-313
-310
-306
-302
-302
-303
-304
-304
-304
-305
-305
-303
-302
-302
-304
-304
-301
-296
-292
-293
-295
-295
-293
-292
-294
-295
-293
-288
-285
-286
-288
-286
-281
-280
-285
-290
-289
-283
-282
-287
-292
-291
-287
-285
-289
-290
-286
-280
-282
-289
-293
-289
-281
-279
-285
-292
-292
-286
-282
-284
-289
-290
-286
-281
-279
-281
-283
-282
-280
-278
-277
-277
-276
-276
-276
-276
-276
-275
-275
-277
-278
-275
-268
-264
-267
-271
-269
-259
-253
-259
-270
-269
-259
-257
-275
-287
-255
-171
-78
-24
-9
8
60
130
172
161
119
84
73
72
66
52
45
54
65
64
50
47
63
76
55
8
-8
54
167
236
209
131
94
125
161
124
23
-70
-104
-92
-73
-56
-36
-28
-65
-150
-238
-282
-292
-320
-393
-480
-526
-513
-469
-428
-403
-388
-380
-382
-395
-408
-414
-413
-411
-408
-403
-395
-385
-372
-355
-342
-337
-334
-320
-297
-281
-279
-273
-234
-162
-86
-28
43
179
404
685
972
1254
1556
1904
2279
2646
2988
3314
3613
3842
3948
3918
3775
3537
3184
2680
2032
1300
554
-162
-830
-1439
-1967
-2393
-2715
-2933
-3043
-3036
-2929
-2769
-2605
-2449
-2275
-2057
-1804
-1569
-1398
-1289
-1194
-1073
-937
-833
-792
-786
-762
-698
-629
-596
-601
-612
-610
-604
-606
-605
-586
-558
-548
-561
-563
-513
-418
-329
-284
-271
-246
-186
-115
-77
-87
-122
-148
-157
-158
-162
-170
-173
-169
-159
-147
-136
-128
-128
-134
-140
-143
-147
-155
-161
-154
-135
-123
-135
-158
-152
-95
-8
62
93
111
151
219
275
285
252
212
193
191
186
173
165
174
185
180
159
157
204
288
360
386
383
401
458
521
548
531
499
473
448
419
402
408
417
387
309
221
168
148
117
50
-29
-81
-93
-82
-62
-31
-1
-8
-77
-180
-259
-290
-312
-370
-453
-502
-492
-462
-474
-536
-603
-638
-655
-696
-767
-831
-849
-823
-786
-763
-753
-745
-733
-723
-718
-717
-719
-723
-731
-736
-731
-717
-700
-686
-676
-671
-671
-675
-680
-680
-672
-656
-639
-628
-623
-623
-622
-619
-614
-609
-605
-600
-594
-587
-580
-574
-571
-568
-564
-558
-551
-545
-544
-544
-542
-537
-530
-527
-528
-527
-522
-514
-508
-507
-508
-505
-499
-492
-487
-486
-485
-483
-479
-475
-471
-466
-461
-459
-459
-459
-455
-448
-442
-440
-440
-438
-434
-429
-427
-428
-428
-427
-426
-427
-426
-423
-416
-410
-406
-404
-400
-393
-387
-385
-386
-386
-384
-382
-382
-384
-383
-380
-376
-375
-375
-375
-372
-370
-369
-371
-372
-367
-360
-353
-352
-354
-353
-348
-340
-336
-337
-340
-340
-339
-338
-341
-342
-341
-339
-337
-336
-334
-330
-328
-329
-332
-333
-330
-327
-328
-330
-329
-324
-318
-315
-316
-316
-312
-307
-306
-309
-311
-309
-307
-308
-313
-316
-313
-308
-307
-310
-313
-312
-306
-303
-306
-311
-312
-309
-306
-304
-304
-303
-301
-299
-298
-296
-295
-294
-296
-299
-301
-300
-299
-299
-301
-301
-297
-292
-289
-291
-293
-292
-289
-287
-287
-288
-285
-279
-276
-277
-280
-279
-275
-273
-275
-280
-283
-281
-279
-277
-277
-276
-273
-271
-272
-274
-275
-274
-271
-269
-269
-269
-269
-269
-268
-268
-267
-267
-266
-265
-266
-267
-266
-264
-263
-265
-270
-274
-270
-265
-265
-271
-272
-263
-252
-253
-266
-272
-260
-247
-254
-277
-275
-218
-127
-52
-21
-10
25
90
150
166
140
101
78
71
68
58
48
50
61
68
61
50
56
72
72
37
-4
10
100
204
237
182
113
104
147
160
94
-12
-87
-101
-82
-63
-46
-30
-37
-94
-185
-258
-285
-295
-338
-420
-496
-520
-492
-447
-413
-395
-386
-385
-395
-411
-422
-423
-423
-423
-420
-412
-403
-395
-384
-369
-356
-351
-347
-334
-313
-299
-295
-281
-235
-164
-95
-34
60
233
488
779
1066
1350
1666
2027
2404
2761
3092
3407
3687
3879
3936
3860
3678
3400
2996
2440
1755
1010
268
-432
-1076
-1651
-2138
-2526
-2811
-2988
-3049
-2997
-2867
-2707
-2551
-2394
-2206
-1974
-1723
-1510
-1367
-1271
-1170
-1037
-901
-817
-797
-797
-761
-690
-629
-612
-626
-635
-630
-625
-629
-625
-602
-576
-571
-581
-566
-499
-404
-329
-298
-285
-251
-189
-129
-109
-128
-159
-177
-180
-182
-189
-195
-195
-188
-180
-171
-161
-152
-152
-160
-168
-171
-172
-176
-178
-169
-155
-153
-172
-189
-167
-96
-11
45
67
88
139
207
250
243
202
166
155
158
154
142
137
147
158
151
135
145
204
290
349
360
356
384
450
507
518
490
456
432
410
385
373
383
384
338
251
167
125
109
71
-1
-74
-112
-110
-89
-60
-26
-7
-37
-126
-230
-294
-316
-345
-413
-492
-523
-501
-481
-513
-583
-641
-665
-685
-735
-806
-857
-859
-827
-791
-770
-759
-750
-738
-725
-716
-713
-717
-724
-730
-728
-718
-706
-692
-677
-662
-655
-658
-665
-669
-666
-659
-649
-639
-627
-618
-615
-618
-620
-615
-605
-595
-590
-588
-584
-578
-572
-571
-572
-569
-561
-553
-548
-545
-540
-534
-528
-526
-526
-523
-518
-513
-510
-509
-508
-503
-497
-493
-491
-490
-486
-482
-479
-478
-478
-474
-467
-461
-460
-463
-463
-458
-451
-448
-448
-446
-440
-435
-432
-432
-428
-422
-416
-416
-419
-420
-418
-414
-413
-413
-411
-406
-401
-399
-400
-400
-399
-396
-394
-394
-392
-387
-381
-377
-375
-373
-369
-365
-363
-362
-361
-359
-356
-355
-356
-356
-353
-351
-350
-352
-352
-350
-346
-344
-345
-345
-342
-338
-336
-336
-334
-330
-323
-319
-320
-321
-321
-317
-314
-314
-317
-320
-321
-320
-319
-320
-319
-317
-313
-311
-311
-311
-309
-306
-304
-305
-305
-303
-301
-300
-301
-302
-303
-304
-305
-307
-306
-304
-301
-300
-300
-299
-295
-291
-290
-292
-293
-289
-283
-279
-280
-281
-280
-276
-272
-270
-270
-270
-269
-269
-269
-268
-265
-261
-260
-262
-264
-265
-264
-265
-268
-271
-271
-269
-268
-270
-274
-277
-276
-274
-274
-275
-275
-274
-274
-276
-278
-277
-273
-271
-274
-277
-276
-272
-267
-267
-270
-270
-268
-264
-263
-264
-264
-261
-258
-257
-258
-259
-259
-255
-250
-247
-248
-250
-248
-242
-240
-249
-259
-257
-242
-236
-254
-275
-258
-186
-93
-30
-9
8
56
127
176
176
140
104
89
86
82
70
62
66
76
80
72
67
75
88
79
42
18
59
161
249
251
181
124
134
173
161
75
-28
-85
-85
-61
-37
-14
-2
-28
-102
-189
-242
-259
-284
-347
-430
-486
-487
-451
-409
-378
-361
-354
-358
-372
-387
-395
-397
-395
-391
-383
-377
-371
-359
-338
-318
-311
-313
-306
-282
-258
-252
-253
-229
-163
-83
-20
39
150
356
637
932
1212
1500
1833
2209
2586
2935
3260
3569
3826
3971
3972
3849
3633
3318
2860
2247
1524
772
47
-632
-1256
-1808
-2262
-2608
-2851
-2990
-3014
-2927
-2773
-2606
-2454
-2293
-2090
-1841
-1595
-1409
-1294
-1206
-1091
-949
-830
-777
-774
-762
-706
-632
-590
-592
-606
-603
-591
-590
-597
-587
-556
-534
-541
-553
-521
-434
-338
-283
-270
-254
-199
-122
-71
-70
-101
-128
-138
-142
-149
-157
-159
-155
-150
-148
-141
-130
-125
-131
-143
-152
-155
-159
-165
-164
-150
-137
-144
-167
-171
-124
-38
39
77
93
126
190
254
276
249
206
179
174
172
160
148
150
162
165
148
137
169
246
326
364
361
367
416
485
525
516
484
458
439
413
389
389
405
393
326
229
159
134
114
57
-30
-97
-114
-98
-77
-53
-26
-18
-64
-162
-258
-307
-325
-365
-444
-514
-525
-494
-486
-536
-611
-659
-676
-702
-764
-837
-875
-861
-822
-793
-780
-773
-761
-746
-736
-734
-737
-742
-746
-749
-746
-736
-719
-697
-678
-669
-670
-676
-680
-678
-672
-661
-648
-634
-625
-622
-624
-625
-621
-615
-610
-608
-605
-599
-590
-584
-582
-582
-578
-571
-564
-560
-557
-553
-546
-540
-537
-538
-538
-534
-529
-524
-523
-522
-519
-513
-509
-506
-505
-503
-499
-495
-493
-490
-487
-482
-479
-478
-476
-471
-466
-463
-462
-461
-457
-452
-450
-450
-447
-441
-434
-431
-430
-430
-426
-422
-421
-422
-422
-419
-415
-412
-410
-406
-402
-398
-395
-393
-391
-387
-383
-380
-380
-380
-377
-370
-363
-360
-360
-360
-358
-355
-355
-356
-354
-348
-341
-339
-342
-343
-340
-335
-333
-335
-338
-336
-331
-327
-328
-328
-326
-321
-318
-318
-318
-315
-310
-306
-306
-307
-305
-303
-302
-303
-305
-305
-303
-301
-300
-301
-302
-303
-303
-303
-303
-303
-302
-301
-301
-302
-303
-301
-297
-294
-293
-295
-296
-295
-293
-292
-291
-290
-290
-292
-295
-295
-293
-291
-291
-293
-295
-293
-290
-288
-289
-288
-285
-281
-279
-281
-282
-279
-275
-274
-278
-282
-282
-278
-274
-276
-280
-282
-278
-273
-273
-276
-279
-277
-274
-273
-273
-273
-271
-269
-270
-272
-273
-272
-272
-275
-277
-276
-271
-268
-269
-271
-269
-264
-259
-260
-264
-266
-264
-261
-259
-261
-264
-264
-261
-254
-247
-245
-248
-250
-244
-235
-231
-236
-240
-234
-224
-228
-246
-250
-209
-127
-45
1
20
48
105
169
200
185
146
117
109
109
103
89
82
91
104
105
93
89
101
111
91
50
43
112
222
285
252
175
140
170
200
158
54
-40
-73
-59
-33
-10
10
11
-34
-118
-199
-238
-253
-288
-364
-446
-486
-470
-426
-386
-362
-351
-348
-354
-368
-384
-393
-395
-392
-385
-378
-374
-367
-350
-326
-309
-309
-313
-300
-273
-255
-259
-257
-214
-133
-56
-3
66
215
464
762
1049
1322
1624
1982
2365
2727
3057
3373
3670
3893
3984
3934
3772
3522
3153
2630
1965
1225
481
-227
-887
-1484
-1997
-2407
-2714
-2921
-3019
-2999
-2881
-2718
-2556
-2404
-2228
-2001
-1742
-1512
-1352
-1253
-1160
-1036
-900
-804
-771
-765
-734
-668
-605
-582
-590
-594
-583
-575
-581
-582
-561
-532
-525
-540
-535
-473
-373
-291
-260
-251
-217
-148
-81
-57
-78
-110
-129
-136
-142
-151
-156
-153
-147
-142
-135
-121
-107
-105
-116
-127
-130
-130
-135
-143
-139
-121
-109
-124
-152
-146
-84
9
77
102
116
160
235
293
294
252
211
199
203
197
178
169
179
192
182
157
160
219
311
377
390
384
410
476
535
547
521
491
474
454
424
406
418
433
400
313
220
171
159
130
59
-23
-69
-73
-59
-40
-9
20
9
-68
-177
-253
-277
-296
-357
-441
-485
-467
-437
-457
-525
-589
-616
-632
-680
-758
-819
-825
-789
-753
-740
-738
-725
-703
-687
-685
-690
-693
-692
-693
-699
-701
-691
-667
-642
-626
-625
-630
-636
-639
-639
-636
-625
-610
-597
-592
-593
-593
-587
-579
-574
-573
-570
-561
-551
-546
-549
-552
-549
-541
-534
-532
-531
-525
-515
-508
-506
-504
-500
-494
-491
-492
-492
-487
-481
-479
-481
-483
-479
-471
-467
-466
-465
-460
-452
-448
-449
-451
-449
-442
-437
-437
-438
-436
-430
-422
-418
-417
-417
-415
-412
-412
-414
-415
-413
-411
-411
-412
-409
-401
-394
-391
-392
-391
-387
-381
-380
-381
-380
-376
-371
-371
-375
-378
-375
-367
-361
-361
-365
-367
-364
-357
-352
-349
-348
-347
-346
-345
-343
-339
-334
-330
-329
-330
-329
-326
-322
-319
-317
-316
-314
-314
-316
-318
-318
-313
-308
-307
-310
-311
-307
-301
-298
-299
-301
-300
-296
-295
-297
-297
-294
-289
-289
-294
-299
-297
-292
-292
-297
-300
-295
-285
-281
-285
-292
-292
-285
-280
-282
-287
-287
-282
-277
-278
-281
-280
-275
-272
-275
-280
-280
-273
-266
-264
-265
-265
-261
-255
-254
-257
-259
-259
-257
-259
-264
-267
-265
-262
-261
-263
-263
-260
-256
-257
-261
-263
-259
-253
-252
-256
-259
-258
-254
-252
-253
-255
-252
-249
-247
-249
-251
-250
-248
-247
-249
-250
-247
-243
-241
-243
-242
-237
-231
-230
-236
-242
-243
-240
-238
-239
-239
-234
-230
-229
-230
-227
-221
-220
-223
-224
-217
-211
-220
-237
-227
-169
-79
-5
27
39
73
140
202
220
190
145
120
119
121
109
91
88
101
112
104
90
90
107
111
79
40
58
152
256
280
215
143
139
185
193
119
7
-65
-71
-48
-27
-10
3
-11
-77
-171
-240
-259
-267
-313
-400
-476
-493
-456
-405
-372
-361
-358
-356
-361
-374
-389
-396
-393
-385
-378
-376
-374
-364
-343
-324
-320
-324
-317
-291
-263
-258
-266
-251
-191
-110
-46
6
100
289
562
859
1140
1421
1745
2117
2497
2851
3178
3493
3769
3944
3978
3882
3690
3404
2983
2406
1709
968
238
-455
-1099
-1670
-2142
-2509
-2780
-2952
-3007
-2941
-2794
-2627
-2474
-2320
-2127
-1882
-1627
-1422
-1289
-1198
-1092
-956
-827
-754
-737
-729
-685
-614
-561
-551
-564
-567
-560
-561
-569
-564
-540
-516
-517
-527
-504
-427
-329
-261
-236
-221
-181
-116
-64
-54
-79
-110
-130
-137
-142
-146
-148
-146
-141
-133
-119
-105
-100
-107
-116
-117
-115
-120
-132
-137
-123
-102
-103
-131
-152
-122
-42
41
87
102
130
194
268
303
285
244
218
215
215
201
185
185
197
199
178
160
183
256
342
389
393
395
435
503
551
552
521
489
464
436
409
402
416
412
355
261
182
148
130
81
0
-71
-100
-95
-80
-56
-20
3
-32
-130
-237
-294
-309
-341
-419
-499
-519
-487
-470
-513
-588
-637
-650
-670
-730
-808
-853
-843
-804
-776
-766
-761
-747
-729
-717
-714
-715
-719
-726
-737
-743
-736
-717
-695
-680
-675
-676
-677
-678
-678
-675
-666
-652
-638
-630
-628
-627
-623
-617
-612
-610
-606
-597
-587
-578
-574
-573
-571
-567
-563
-561
-558
-551
-544
-539
-537
-535
-529
-522
-518
-518
-517
-512
-503
-497
-496
-497
-496
-490
-486
-485
-486
-484
-479
-474
-471
-470
-463
-455
-448
-448
-449
-446
-440
-438
-442
-446
-441
-430
-423
-426
-432
-432
-426
-421
-423
-427
-425
-417
-409
-409
-412
-411
-404
-398
-397
-402
-404
-398
-390
-386
-388
-390
-386
-379
-374
-375
-377
-375
-370
-366
-366
-367
-363
-357
-353
-353
-354
-352
-347
-344
-345
-347
-345
-341
-337
-337
-338
-337
-332
-327
-325
-325
-324
-322
-319
-319
-320
-320
-317
-313
-311
-312
-313
-312
-309
-305
-305
-307
-305
-301
-297
-297
-299
-296
-291
-287
-288
-291
-291
-286
-282
-284
-290
-293
-291
-288
-287
-288
-289
-289
-288
-289
-289
-288
-287
-289
-291
-291
-287
-283
-283
-286
-288
-286
-281
-280
-283
-285
-283
-277
-272
-271
-271
-269
-267
-267
-270
-270
-266
-261
-261
-265
-268
-265
-259
-256
-258
-261
-259
-254
-251
-253
-257
-257
-252
-248
-248
-252
-254
-252
-251
-254
-258
-262
-262
-260
-258
-258
-258
-254
-250
-248
-250
-252
-249
-243
-241
-248
-253
-249
-238
-232
-236
-239
-234
-226
-226
-234
-234
-221
-214
-229
-245
-223
-146
-51
10
28
42
90
160
208
205
168
132
121
121
117
102
93
101
115
118
103
94
105
121
106
60
36
90
203
284
266
185
137
162
203
178
81
-18
-61
-53
-32
-14
9
22
-10
-96
-190
-241
-251
-273
-342
-433
-488
-481
-438
-398
-376
-366
-359
-360
-371
-387
-394
-392
-387
-384
-382
-381
-374
-357
-335
-321
-320
-323
-314
-289
-267
-263
-262
-232
-164
-87
-26
41
165
382
662
952
1233
1529
1869
2241
2609
2952
3279
3588
3836
3964
3953
3823
3597
3262
2781
2153
1432
688
-33
-711
-1329
-1866
-2303
-2639
-2876
-3004
-3012
-2913
-2759
-2599
-2447
-2278
-2064
-1812
-1574
-1394
-1276
-1178
-1059
-923
-812
-762
-754
-737
-683
-615
-574
-573
-586
-588
-581
-580
-581
-568
-543
-529
-535
-537
-494
-406
-317
-265
-244
-218
-161
-94
-54
-58
-86
-114
-130
-138
-143
-143
-140
-137
-135
-129
-116
-101
-98
-107
-118
-122
-123
-130
-139
-134
-115
-100
-112
-139
-140
-86
4
77
109
123
160
226
286
301
270
228
204
198
193
182
175
179
187
183
166
164
204
281
355
389
391
403
452
514
549
541
511
481
455
428
410
414
427
404
331
239
175
149
120
57
-23
-78
-92
-84
-67
-41
-7
-2
-60
-166
-260
-303
-323
-370
-449
-506
-503
-472
-476
-533
-603
-640
-653
-687
-757
-827
-853
-829
-790
-766
-756
-747
-733
-721
-713
-710
-710
-717
-730
-741
-737
-720
-700
-685
-674
-666
-660
-662
-669
-676
-672
-657
-640
-630
-628
-630
-631
-629
-626
-623
-616
-607
-599
-592
-588
-583
-577
-572
-570
-567
-561
-551
-543
-539
-536
-531
-525
-520
-518
-516
-511
-504
-499
-498
-499
-498
-492
-486
-484
-484
-483
-478
-472
-468
-467
-466
-463
-457
-452
-451
-451
-449
-445
-441
-438
-436
-433
-429
-426
-425
-424
-422
-419
-417
-416
-416
-414
-410
-407
-408
-409
-407
-402
-396
-396
-399
-399
-393
-386
-384
-387
-390
-388
-383
-379
-379
-378
-374
-368
-364
-364
-365
-363
-360
-360
-364
-368
-365
-358
-353
-354
-359
-359
-353
-345
-344
-347
-348
-344
-339
-339
-342
-343
-340
-336
-339
-346
-349
-343
-334
-332
-337
-341
-337
-329
-324
-326
-327
-325
-322
-322
-326
-326
-322
-318
-320
-325
-328
-324
-318
-317
-319
-318
-311
-303
-301
-305
-306
-302
-297
-296
-299
-301
-297
-290
-286
-287
-288
-285
-280
-277
-278
-282
-283
-282
-281
-282
-284
-284
-281
-280
-281
-283
-283
-282
-281
-281
-282
-282
-280
-279
-278
-275
-270
-266
-266
-268
-270
-269
-267
-266
-267
-269
-270
-269
-268
-267
-266
-265
-264
-263
-263
-263
-263
-263
-262
-262
-262
-262
-260
-256
-254
-253
-253
-252
-249
-247
-247
-249
-246
-239
-236
-239
-243
-240
-232
-230
-239
-246
-239
-227
-231
-251
-255
-207
-116
-32
6
14
42
108
178
204
179
135
109
105
104
91
74
72
84
93
85
70
72
93
101
71
25
28
113
225
270
221
145
126
165
185
127
23
-56
-76
-60
-39
-19
3
1
-53
-146
-224
-254
-264
-304
-384
-462
-492
-470
-427
-390
-366
-353
-350
-360
-376
-389
-392
-390
-386
-379
-370
-364
-357
-344
-324
-310
-309
-309
-295
-269
-252
-254
-249
-206
-129
-52
9
93
253
502
795
1084
1365
1673
2027
2401
2761
3096
3414
3699
3902
3976
3917
3748
3483
3093
2551
1878
1138
396
-310
-964
-1552
-2052
-2450
-2746
-2937
-3016
-2979
-2856
-2696
-2538
-2383
-2200
-1969
-1714
-1492
-1338
-1237
-1135
-1002
-864
-771
-743
-740
-708
-639
-574
-550
-561
-570
-565
-558
-560
-559
-543
-520
-515
-524
-512
-450
-357
-282
-249
-235
-200
-134
-72
-49
-70
-104
-124
-128
-129
-136
-145
-147
-142
-134
-125
-115
-108
-108
-112
-117
-121
-128
-137
-140
-128
-111
-109
-130
-150
-131
-62
21
77
98
117
166
237
288
287
246
204
188
192
193
183
176
183
193
188
171
177
231
317
383
399
391
410
471
535
556
532
493
464
441
418
406
415
419
379
294
208
160
141
106
35
-42
-86
-90
-74
-50
-19
1
-23
-104
-206
-273
-297
-325
-390
-469
-503
-481
-454
-477
-545
-608
-635
-651
-696
-769
-828
-837
-804
-764
-741
-730
-721
-708
-698
-694
-697
-703
-710
-717
-720
-714
-700
-682
-664
-651
-647
-650
-657
-661
-657
-647
-635
-625
-616
-609
-604
-603
-606
-608
-605
-595
-585
-577
-573
-568
-562
-556
-554
-554
-552
-546
-539
-536
-537
-537
-533
-525
-519
-516
-513
-508
-503
-499
-496
-490
-482
-479
-480
-482
-479
-470
-463
-462
-464
-464
-459
-454
-453
-455
-456
-452
-446
-442
-439
-436
-432
-427
-425
-425
-424
-419
-413
-411
-413
-415
-413
-408
-404
-406
-408
-405
-398
-393
-392
-392
-389
-381
-376
-378
-384
-385
-380
-372
-369
-369
-369
-363
-357
-354
-354
-354
-350
-347
-348
-350
-352
-352
-350
-350
-351
-347
-341
-335
-334
-337
-337
-332
-325
-322
-324
-326
-324
-321
-320
-321
-321
-316
-311
-311
-315
-316
-312
-305
-300
-301
-304
-303
-299
-296
-297
-299
-298
-293
-289
-290
-293
-293
-287
-281
-281
-285
-288
-285
-281
-281
-282
-279
-274
-272
-275
-280
-277
-270
-267
-272
-279
-277
-269
-262
-265
-274
-277
-272
-265
-265
-271
-276
-273
-264
-257
-257
-260
-261
-257
-250
-246
-247
-250
-250
-249
-249
-250
-249
-248
-248
-250
-254
-254
-251
-247
-246
-249
-250
-248
-246
-246
-249
-250
-247
-244
-243
-246
-248
-248
-244
-242
-242
-243
-244
-245
-245
-245
-244
-244
-245
-247
-248
-245
-241
-235
-234
-238
-243
-240
-231
-225
-232
-244
-245
-233
-226
-240
-261
-247
-180
-87
-17
12
29
71
137
188
197
170
136
119
114
111
102
94
95
104
108
101
95
102
115
106
68
38
72
171
262
269
204
146
155
195
188
106
2
-58
-61
-40
-18
4
18
-3
-73
-160
-218
-237
-258
-316
-400
-461
-470
-438
-397
-367
-351
-346
-350
-362
-374
-382
-386
-389
-386
-375
-364
-360
-356
-345
-328
-317
-315
-311
-291
-267
-257
-256
-235
-175
-93
-27
31
135
331
606
903
1187
1474
1801
2170
2545
2895
3222
3533
3797
3957
3975
3864
3654
3348
2907
2313
1601
845
110
-573
-1198
-1751
-2216
-2576
-2829
-2972
-3003
-2928
-2782
-2614
-2456
-2295
-2099
-1855
-1602
-1403
-1282
-1198
-1091
-948
-817
-751
-746
-740
-689
-612
-565
-564
-582
-583
-572
-571
-580
-573
-546
-524
-532
-545
-516
-430
-329
-269
-255
-241
-189
-113
-59
-55
-86
-116
-130
-136
-143
-150
-151
-145
-137
-130
-121
-112
-107
-112
-120
-126
-128
-132
-139
-139
-126
-110
-111
-131
-141
-108
-33
46
95
117
148
206
271
301
283
241
211
203
202
194
184
184
194
196
180
169
198
274
355
395
395
400
445
515
558
550
516
486
465
441
418
413
425
416
354
261
186
155
136
87
8
-62
-91
-85
-64
-33
-1
4
-47
-146
-238
-283
-301
-344
-423
-493
-505
-476
-465
-506
-574
-622
-646
-675
-733
-799
-835
-826
-792
-762
-747
-739
-729
-716
-707
-705
-709
-714
-716
-718
-716
-709
-695
-676
-659
-651
-653
-660
-665
-666
-661
-652
-639
-624
-611
-605
-607
-611
-612
-608
-600
-593
-591
-589
-584
-576
-571
-571
-571
-568
-559
-550
-545
-542
-538
-532
-527
-524
-523
-521
-518
-514
-511
-508
-503
-498
-496
-495
-494
-489
-484
-479
-477
-474
-468
-462
-459
-459
-459
-456
-450
-447
-446
-446
-444
-437
-431
-429
-428
-426
-420
-414
-411
-412
-411
-406
-400
-397
-397
-396
-393
-389
-386
-384
-381
-378
-377
-376
-375
-371
-365
-363
-364
-367
-367
-362
-356
-353
-354
-356
-355
-353
-351
-352
-354
-353
-351
-352
-355
-355
-351
-344
-340
-339
-339
-336
-332
-328
-326
-325
-326
-327
-327
-324
-322
-322
-324
-322
-316
-313
-314
-315
-311
-303
-297
-298
-300
-297
-291
-289
-292
-295
-293
-287
-286
-288
-288
-282
-278
-281
-288
-287
-278
-270
-274
-284
-288
-282
-278
-282
-293
-297
-291
-286
-287
-292
-291
-283
-277
-278
-282
-281
-275
-271
