-9871
-9935
-9569
-8800
-8116
-8411
-9273
-8603
-8331
-8454
-8534
-8237
-7863
-7832
-7939
-7905
-8362
-8923
-8620
-8053
-7581
-7731
-7472
-7514
-7956
-8606
-8758
-8524
-7949
-7173
-6907
-7284
-7675
-7941
-8102
-8607
-8371
-7090
-7192
-7053
-7162
-8005
-8406
-8809
-7818
-7186
-6978
-6959
-6578
-6434
-7099
-7307
-7527
-7049
-6260
-6084
-6370
-6860
-7184
-7148
-7314
-7149
-6216
-5801
-6448
-6488
-6332
-6783
-7524
-7135
-6213
-6160
-5801
-5736
-6397
-6797
-6553
-6582
-6670
-6264
-5874
-5749
-5788
-6298
-6972
-7181
-7308
-6953
-6657
-6578
-6560
-6631
-7395
-8092
-7686
-6717
-7035
-7188
-7071
-7521
-7866
-8264
-7827
-7345
-7106
-6705
-6680
-7087
-7476
-7526
-8130
-8496
-7220
-7531
-7576
-6929
-7435
-7766
-8026
-8315
-8219
-7600
-7127
-6894
-7023
-7705
-8053
-7942
-7837
-7203
-6888
-7065
-7419
-6995
-7405
-7990
-8222
-7964
-7212
-6675
-6666
-6767
-6977
-7777
-8215
-8148
-7719
-6898
-6470
-6218
-6250
-7057
-7220
-7490
-7269
-7893
-7112
-5537
-5642
-6195
-6840
-7318
-6840
-6860
-7100
-6708
-5896
-5727
-6344
-7030
-7672
-6226
-5927
-6271
-6216
-6496
-6310
-6416
-6562
-6852
-6655
-5664
-5672
-5954
-6251
-6523
-6423
-7075
-7124
-6009
-5891
-6425
-6458
-5611
-5972
-6656
-6546
-6377
-5930
-5881
-5833
-5180
-5600
-6460
-6543
-6254
-5648
-6071
-5829
-5344
-6097
-6430
-6210
-6448
-5849
-4957
-4976
-5581
-5571
-6003
-5904
-5494
-5806
-6094
-5164
-5181
-6009
-6535
-6258
-6083
-6042
-5505
-5171
-4728
-4879
-5061
-5598
-5821
-5735
-5766
-5239
-4662
-4487
-5015
-5728
-5536
-5094
-5031
-4776
-4682
-4379
-4451
-4847
-5657
-6155
-6114
-5525
-4958
-4472
-4121
-4594
-5241
-5385
-5579
-5892
-5459
-4727
-4739
-4606
-4530
-5705
-6335
-6192
-5717
-5298
-4704
-5199
-4462
-4978
-5915
-6228
-5735
-4820
-4406
-4529
-4477
-4812
-5295
-5267
-5273
-5358
-4330
-5133
-5673
-5202
-5663
-5697
-5724
-5595
-4947
-4274
-3946
-4092
-5042
-5267
-5101
-5989
-5827
-5243
-4857
-4682
-4857
-5172
-5038
-3766
-2891
-1318
528
2030
1499
1271
968
241
-190
-123
-441
-732
-1716
-3496
-4899
-6373
-6676
-6277
-5609
-4458
-3998
-4999
-5813
-5307
-5085
-5573
-5416
-4328
-4153
-4561
-4830
-5265
-5492
-5627
-4912
-4495
-4023
-4078
-4233
-4787
-4812
-4914
-5574
-4962
-4195
-4121
-4507
-4433
-5060
-5046
-4910
-4755
-4566
-3830
-3955
-3809
-3802
-4189
-4742
-4508
-3660
-4322
-4336
-3355
-3097
-4101
-4238
-4342
-4151
-3737
-3709
-2941
-3214
-3986
-4435
-4148
-4053
-3975
-2847
-3493
-3518
-3320
-4089
-4778
-4443
-3690
-2870
-2880
-2932
-3387
-3684
-3988
-4402
-3806
-3683
-3072
-2638
-2560
-2610
-2946
-4010
-3334
-2285
-2054
-2309
-2589
-2520
-2449
-2990
-3455
-2442
-2063
-1822
-2264
-2024
-2127
-3101
-3319
-3067
-2923
-2009
-1745
-1559
-1812
-3083
-2853
-2230
-2807
-3175
-2338
-1736
-2526
-3018
-3259
-3342
-3036
-2680
-2827
-2719
-2354
-2366
-3563
-4146
-4209
-3252
-2537
-2401
-2103
-2332
-3123
-4208
-4313
-4272
-3909
-3319
-2985
-3317
-3586
-3568
-4163
-4363
-3631
-3201
-3155
-3541
-3636
-3825
-3662
-3571
-3663
-3930
-3326
-3158
-3411
-4066
-4288
-4945
-4921
-3990
-3247
-3080
-3192
-3721
-4396
-4533
-4258
-4269
-4087
-3847
-3327
-3844
-4671
-4169
-3866
-3774
-3590
-3163
-2691
-3343
-4030
-3949
-4272
-4104
-3782
-3817
-3971
-3735
-3052
-3713
-4538
-4549
-3645
-3410
-3491
-3209
-3575
-3754
-3949
-4325
-4323
-4119
-4014
-3284
-3153
-2833
-3541
-3901
-4240
-4649
-4088
-3309
-3200
-3758
-3364
-3438
-4753
-4292
-3884
-3886
-4060
-3504
-3714
-4186
-4846
-5048
-4977
-4465
-3518
-2805
-3165
-3733
-4247
-4194
-4357
-4391
-3896
-3259
-3054
-3956
-3864
-3623
-4281
-4725
-4411
-3568
-3616
-3554
-4258
-4252
-4458
-4268
-4069
-3821
-3802
-3735
-3875
-3797
-4485
-5038
-4729
-3921
-3514
-2932
-3151
-3812
-4267
-4511
-4219
-4038
-3816
-3704
-3640
-3592
-4361
-4735
-4442
-4391
-3944
-3639
-3682
-3278
-3646
-4441
-4663
-4697
-4243
-4215
-4482
-4231
-4053
-4333
-5051
-5421
-4698
-4449
-4063
-3651
-4059
-4590
-4922
-5094
-5668
-4938
-3712
-3204
-3565
-3491
-4282
-5241
-5305
-5510
-4739
-4005
-4051
-4437
-4951
-4319
-4529
-4663
-4944
-4920
-4627
-4134
-4389
-5034
-5773
-5719
-4973
-4093
-3409
-2831
-2498
-1889
-1277
-692
0
997
2578
2794
2395
1232
-113
-884
-1859
-2339
-2607
-3032
-3800
-4084
-4878
-5608
-4755
-4528
-4931
-4396
-4219
-4560
-4591
-4790
-5204
-4586
-3558
-3638
-3616
-2992
-3420
-4033
-4602
-4765
-4261
-3701
-3708
-3528
-3605
-4083
-4668
-4519
-4990
-4745
-4151
-3015
-2570
-3235
-3856
-4140
-4546
-4590
-4049
-3254
-2973
-2635
-3619
-4427
-4164
-3559
-3891
-3898
-3369
-3031
-2696
-2890
-3288
-3880
-4308
-3313
-2614
-2646
-2712
-3199
-3920
-3844
-3224
-3446
-3648
-3161
-2041
-2768
-3626
-3785
-3490
-3111
-2846
-2182
-2314
-2423
-2965
-3858
-4133
-2552
-1766
-2387
-1883
-1741
-1986
-2380
-2690
-3088
-2566
-1785
-1748
-1368
-1796
-1861
-1853
-3125
-2913
-2645
-1973
-1514
-1924
-2186
-2364
-2529
-2382
-1893
-1602
-1579
-2101
-1705
-1330
-2145
-2243
-2180
-2331
-1948
-1452
-1595
-1959
-2312
-2853
-3356
-2983
-2706
-1904
-1778
-2073
-2697
-3168
-3542
-3904
-3622
-2836
-2916
-2344
-2029
-2631
-3495
-2853
-2506
-2501
-2377
-2826
-3074
-3748
-3759
-3376
-3601
-3678
-2741
-2841
-2563
-2726
-3683
-4109
-3217
-2647
-2974
-3397
-3335
-3376
-3496
-3833
-3890
-4089
-3219
-2750
-2984
-3063
-3147
-3644
-3374
-3988
-3792
-3203
-3528
-3946
-3882
-3829
-4043
-4176
-3791
-3441
-2793
-2821
-3174
-3521
-3769
-4002
-4080
-3739
-3030
-2587
-2465
-2659
-2956
-4023
-4571
-3671
-3032
-2353
-2707
-2635
-2894
-3664
-3274
-3195
-3473
-3160
-2798
-2358
-2784
-3645
-3801
-3419
-3053
-2645
-2222
-2184
-2387
-3080
-3534
-3806
-3869
-3371
-2291
-1763
-2230
-2817
-3061
-3587
-3726
-2988
-2416
-2358
-2396
-2502
-2457
-3002
-3277
-3313
-3093
-1775
-1832
-2009
-1920
-3024
-3611
-3386
-3300
-2617
-2221
-2349
-1585
-1307
-3188
-3295
-2682
-2021
-2095
-2136
-1624
-1452
-2042
-2556
-2435
-2148
-1862
-1312
-477
-876
-2115
-2482
-2192
-1760
-1391
-1291
-1319
-1497
-1925
-2146
-2207
-2141
-1979
-1455
-869
-578
-967
-1457
-2138
-2502
-2530
-2274
-1121
-1195
-1901
-1941
-1834
-2367
-2533
-2163
-1870
-1889
-1333
-1143
-2103
-2246
-2225
-2013
-2236
-1429
-1226
-1282
-1426
-2082
-1977
-2317
-2032
-1196
-814
-973
-1412
-2284
-3155
-2680
-2391
-1965
-2079
-1462
-1148
-1054
-995
-59
1057
1981
3136
4669
5182
5488
4848
3573
3070
3104
2429
2602
1696
238
-1222
-1769
-1758
-2079
-2156
-1760
-1604
-1068
-1499
-2188
-2413
-2341
-1851
-1427
-1011
-733
-620
-1377
-2460
-2419
-1675
-1412
-884
-645
-524
-482
-1410
-2032
-1839
-938
-431
-642
-593
-677
-933
-1593
-1708
-1638
-1149
-399
-318
-320
-977
-1512
-1947
-1389
-833
-368
-21
-458
-795
-1142
-1177
-1190
-1013
-541
83
436
413
-240
-1197
-1472
-1675
-697
371
684
71
281
-394
-991
-1028
-587
377
606
830
961
60
22
-191
-431
280
875
844
1428
1213
471
378
12
477
410
819
1218
1293
1448
832
292
239
764
1489
2078
1360
1256
1342
706
608
310
470
903
1812
1523
1252
1007
260
-46
299
1407
1472
800
411
595
70
-319
-391
22
931
1688
784
-117
-788
-652
-159
-186
-160
748
672
284
-168
-625
-1114
-1092
-466
299
-167
-697
-682
-480
-677
-693
-675
-317
-2
-80
-532
-326
-378
-718
-437
-191
-21
-308
-214
-181
-614
-1050
-962
-686
157
1227
669
-8
-530
-809
-768
-632
-34
59
-423
-174
-159
-555
-1525
-1006
-98
298
699
503
-460
-1267
-682
-419
-508
-60
547
789
1024
46
-1207
-520
122
-78
-298
469
223
75
-64
-93
-413
-220
7
174
850
923
249
-905
-1161
239
810
743
560
643
-114
-761
-593
-382
542
747
712
1003
78
492
-80
-1095
-858
410
637
785
693
-45
-289
-933
-1090
206
755
865
837
404
-145
-1024
-1439
-1048
-104
540
519
210
-458
-868
-1166
-787
26
631
650
42
498
-135
-974
-1306
-1000
-63
612
1304
774
76
-172
-494
-1010
-57
675
605
299
-171
-869
-1180
-889
-731
-536
373
763
219
-419
-1027
-1008
-704
-250
98
-533
-442
-510
-1048
-1096
-905
-1051
-761
-308
-248
-382
-1189
-1825
-1844
-1574
-967
-493
-377
-805
-1195
-1437
-1821
-1420
-1113
-812
-117
-786
-1190
-1923
-2283
-2281
-2263
-1804
-1382
-1248
-667
-871
-1668
-2425
-1750
24
799
2038
3651
4208
4372
5426
5545
4917
4521
4540
4588
3387
2214
788
-795
-2017
-2118
-1539
-713
-476
-911
-1645
-1647
-1782
-1621
-1593
-1476
-671
-608
-736
-1423
-1787
-1791
-1524
-847
-753
-612
-335
-1317
-1783
-1169
-716
-665
-460
87
-398
-1313
-1270
-623
-859
-1023
-460
391
102
-438
-380
-240
-968
-824
-215
565
500
246
140
-248
-731
-1165
-635
270
271
432
116
-741
-858
-268
143
1020
1063
1192
899
95
-388
-607
-28
958
1242
959
730
987
459
295
376
58
285
1162
2299
2303
1941
1027
675
915
1402
1755
2136
2334
1979
1530
1038
1119
1395
1540
2010
2381
2318
1395
1409
940
795
1607
2347
2537
2652
1530
684
822
835
1114
1802
2756
2885
2094
1282
551
624
1279
1606
1682
1904
1449
847
545
884
419
547
1197
1721
2232
1479
344
406
191
503
1754
2133
1805
698
301
344
96
-20
874
1329
2158
1656
465
312
517
718
453
1009
1839
1855
471
244
419
419
455
560
780
1852
1805
1192
1099
656
178
751
1874
2297
2126
1879
942
491
267
471
1829
1912
1173
1383
1448
963
121
768
1233
1830
1672
1246
1202
836
370
-104
445
1717
2314
2536
1773
1324
1232
841
1176
1519
1589
2228
1785
1680
2238
2019
1098
880
1162
2573
2843
2189
1675
1255
995
1088
1675
1848
2257
2297
2151
1644
1007
718
1532
2472
2992
2487
1783
1436
1640
1739
1355
1175
1993
2258
1998
1580
1036
808
1099
1464
1709
2304
2208
2333
2207
1267
1304
1814
1957
2768
2475
2287
1994
1428
1335
1363
2066
2367
2889
3181
2754
2111
1793
1899
1947
2791
2877
2858
2453
1808
2197
2356
2127
2330
2838
3042
3146
2377
1909
1700
1565
1801
1899
3004
3238
2815
2318
1483
1243
1037
946
2185
2314
2649
2195
2027
1797
1090
1489
2071
2199
2930
2503
1813
1332
1362
1786
1976
2292
2257
1861
2043
1959
1539
1283
1455
2736
2225
1751
2354
1755
921
1153
1490
793
1084
1720
2188
2333
2237
2493
3834
5371
6941
8143
9232
10019
9623
8373
8116
7279
7289
7063
6747
5014
2990
2045
1670
1590
2198
1747
2390
2937
3161
1866
1087
624
818
1579
2667
3208
2451
2626
3063
2267
1640
1593
1828
2955
2764
2350
1827
1439
1780
2072
2344
3046
3304
3135
2813
2612
2175
2056
2414
2888
3549
3399
2545
2207
2142
1677
2043
2520
2925
3604
3356
2879
2311
2185
2629
2596
3202
3850
3281
2977
2661
2542
2799
3209
3040
3053
3392
3585
2907
2083
2481
2355
3309
4157
4352
4535
4169
3622
3154
2894
3315
3948
4208
4287
4396
4412
3747
3869
3785
3750
4437
5467
5027
4665
4455
3966
4089
4508
4915
5106
5004
5181
4656
4688
5146
3914
4754
5932
5360
4679
4842
4382
3840
4190
4576
4546
4416
5049
5207
4522
4251
4248
3654
3902
4234
4679
4626
3984
3824
3713
3652
3730
3689
3839
4186
3985
3394
2965
2633
2744
3673
3915
3942
3694
3488
3380
3728
3298
3452
2628
2924
4434
4403
3119
2695
2720
2700
3726
4270
4161
3686
3674
3349
2469
2430
3039
3619
3629
3586
2741
2958
2915
2241
2455
3047
3538
4000
3793
3139
2994
3179
3047
2942
3609
3793
3942
3519
2855
2832
3084
3222
3802
2874
3223
3690
3244
2569
2563
2760
3172
4066
4164
3786
3571
3386
3474
3153
2692
3353
3555
3468
3720
2811
1564
1744
2774
3985
4211
3543
3768
3588
2189
2010
1678
2244
3300
3589
3596
3306
2847
2466
2210
1957
2026
2525
3121
3034
2994
1730
1292
1540
1977
2663
3052
2648
2146
1706
1424
1587
1469
1958
2397
2393
2778
2307
2115
1622
1557
2512
2201
2255
2988
2457
1924
1523
1334
1398
1866
2556
3103
2923
2365
1874
1314
1518
1201
2042
2836
3050
2332
1542
1411
1592
1911
2065
2108
2233
2574
2477
1505
1313
1947
1606
1645
1824
1906
2035
1188
660
442
990
1713
1653
2160
2111
1843
1533
1639
1461
1443
1548
1493
1651
1749
1996
1497
1495
1311
1372
2005
1831
1818
1946
1142
792
1031
1080
1803
2556
2628
2275
1696
1187
1395
999
1773
2335
2190
1541
1263
548
999
487
1173
2158
3211
3272
3158
3384
3284
4249
6284
8140
9436
10193
9588
8445
7366
6783
6733
6040
5224
4629
3137
1756
1549
1388
984
1355
2189
2883
2915
1970
1486
923
1503
1736
2055
2790
2948
3163
2760
2816
2505
2129
2572
2924
3130
3621
3624
2450
2112
1904
2227
2449
3052
3293
3537
3825
2939
1714
1790
2260
2699
2765
2631
2699
2112
1489
1390
1797
2819
3203
2739
2933
2405
1782
1504
2035
2065
2294
3106
3503
3147
2671
2651
2388
1684
2578
3585
3755
3014
2530
2290
2379
2581
2936
3386
4103
4507
3642
3149
2565
2485
2902
3819
4154
4416
4310
3754
3421
3076
3509
4184
4662
5251
5574
5301
4697
4225
4140
4517
4623
5326
5617
4813
4933
4803
4997
5196
5469
5670
5795
6171
6025
5112
4300
4179
5132
5333
5314
6170
6270
5149
4880
4205
3997
4753
4982
5303
5248
5543
4549
3798
3927
4195
4776
4843
4916
4826
4436
4177
3932
3611
3803
4813
5375
4934
4337
4344
4457
4198
4237
4625
4774
4525
4940
4904
3951
3605
3766
3967
4910
4960
4459
5300
4123
3604
3644
3605
4500
5182
4831
4300
3591
3075
3247
4311
4688
4745
4866
5120
4776
4405
3706
3387
3894
4875
5490
5424
4319
4019
4515
4344
3672
4204
4803
4954
5013
4377
4101
4149
4099
4636
5252
5705
5217
4369
4176
3638
3654
4097
4637
5456
5898
4651
4541
4178
3729
3831
4331
4806
4949
5107
4774
3827
3724
3695
3831
4709
4863
4983
4665
4563
4452
3302
3171
4187
4376
4572
5016
3916
3787
3559
4052
4095
3875
4407
4969
4288
3761
3464
3342
3357
4444
4520
4288
4265
4396
3683
3657
4408
3915
3718
4072
4493
4983
4456
3570
3870
3388
3554
4346
4553
4400
4097
3757
3461
3389
3948
4432
4752
4120
4100
3708
3367
3242
3677
4529
4854
5216
4097
3997
4008
3688
4004
3837
4210
4737
5165
4987
3326
2674
3199
3625
3951
3817
3710
4378
3687
3509
3182
2717
3023
4101
4269
3685
3363
3107
2632
2849
2913
2613
2809
3654
3867
3161
3071
2579
1804
1692
2975
3328
3545
2707
2922
2658
1449
2335
2637
2482
2605
2678
2251
1818
1417
1698
1996
2742
3102
2460
1764
1552
1707
2374
3036
4513
5671
6940
7329
7417
8124
9034
9075
9115
8897
8357
7518
6261
4496
2929
2232
1034
1725
3014
2992
2109
2028
1404
1426
1655
2157
2376
2255
2096
1724
1493
1603
1639
1827
2173
2006
2038
2186
2013
2102
1736
1288
1675
2058
2501
2280
1875
2001
1450
1188
1743
2751
3155
3089
2346
1000
925
1692
1836
2286
2664
2653
3010
2492
1369
1437
1844
2233
2737
3046
2842
2346
1415
1533
2513
2241
2494
3193
3572
3141
1895
1924
2407
2679
2823
2812
3978
4132
3127
2967
2962
2657
2557
2772
3263
3307
3289
3030
2890
3100
3132
3263
3965
4087
4087
3327
3037
3180
2812
2705
3116
3469
4327
4268
3666
2963
3164
2899
3447
3821
3863
3562
3182
3055
2334
2360
3412
3823
4096
4033
3803
3402
2602
2044
2689
3035
3235
3224
2992
2436
1972
1126
1352
1703
1931
2321
2958
2515
1984
1094
913
467
1194
2260
2199
2148
1726
570
177
304
1302
1751
1737
1940
1915
1123
644
741
1050
1431
1327
1401
2006
1181
281
614
928
1437
1833
2092
1793
1281
1190
598
238
975
1575
1817
1855
1415
1131
1136
625
791
1224
1502
1714
1805
1642
1311
936
115
293
1378
1777
2449
2225
1443
864
1123
1346
1480
2203
2184
1888
1169
1511
1273
839
711
1296
2179
2545
2306
904
303
682
732
1513
2223
2191
1586
1070
672
531
631
1233
1817
2182
2159
1815
1464
1078
983
957
1047
1855
2310
2288
1769
1147
764
733
834
1300
2037
2185
1592
1361
955
1037
1477
1602
2251
2646
2927
1480
665
603
1036
1838
2199
1992
1720
2357
1993
1483
1170
927
1408
1356
2525
3170
2626
2155
1739
1884
2032
2726
2865
3115
2879
1960
1214
1249
1748
2207
2453
2863
3060
2172
1834
1723
1128
1711
2397
2135
2507
2172
1434
1096
779
1231
1495
2471
1845
2379
1838
1176
816
863
1260
1800
2046
1325
1395
1661
1395
1391
1304
1041
1746
1895
1811
1272
913
466
993
1260
1792
1547
1734
1796
1597
736
-74
554
1201
1532
1285
1220
1318
678
812
1384
1962
3653
5553
5695
5705
6112
6307
6962
7378
7106
6558
6228
5664
4201
2341
1031
854
993
1044
1235
730
761
1030
215
240
789
1314
1571
1700
1691
1151
923
889
1186
1198
1837
2735
2458
1532
1333
691
615
1217
2005
2913
2464
1601
1532
1022
1392
1752
1885
1879
2237
2170
1916
1903
714
735
2062
2749
2481
2535
2196
1820
1677
1460
1304
1603
2303
2233
2372
2479
1458
1197
1675
1932
1964
2813
2563
3066
2623
1982
2101
2060
2837
3386
2596
2749
2520
2193
2450
2248
2917
3867
3587
3799
3999
3051
2272
2709
3319
3132
3667
4228
3769
3433
2603
2433
2781
3379
3857
4461
4744
3991
3740
3014
3080
3474
2990
2837
4248
4560
4035
3485
3298
3527
4039
4026
4014
4020
3331
2652
2772
2617
2347
3139
3205
2885
2801
2329
2168
1890
1819
1694
2178
3196
3295
2115
993
1857
2000
1908
2220
2290
2718
2644
2155
1692
1291
1328
1804
2410
2642
2606
2036
1550
1582
1281
1719
2264
3164
2711
2452
2384
1524
1471
1730
2142
2750
2819
2526
2248
2114
1247
1046
1409
1913
2732
3315
2533
1500
1393
1494
1739
1952
2629
2760
2205
2033
1636
803
1477
1923
2164
2861
2484
1379
1163
1476
1355
1716
1853
1656
2551
2659
2157
1625
951
1279
2453
2620
1986
1684
1576
1873
1862
1266
1799
2059
2395
2785
2657
1912
1060
1315
1826
2364
3102
3158
3096
2198
893
912
1481
1928
2613
2310
2429
2392
1587
1784
1602
1036
1477
2293
2933
3322
3657
2254
1393
1613
2112
2288
2753
2949
2978
2577
1711
1783
2247
2619
2797
2785
2530
2830
1910
1568
1263
2503
3221
3425
3292
2747
2711
2627
2318
2254
2565
3698
3740
3365
3615
3021
1692
2013
2847
3396
3535
3257
2294
2468
1972
1766
2458
2366
2790
3517
3451
2732
2141
2570
2590
2176
2629
2817
2636
2402
1908
1673
1632
2122
2399
2755
3230
2592
2499
1999
1405
1569
1761
2420
2578
2667
2032
1933
2018
1555
993
1760
2923
3435
2499
1471
878
649
708
560
1074
2081
2191
2167
2427
2847
3830
4933
6231
7827
8726
9230
8049
7427
7282
6684
5945
5875
5787
4718
2756
1364
812
986
1199
1171
1732
2173
2102
1538
735
470
1176
1622
1950
2705
2474
2106
1640
1700
2227
2116
2152
2568
2858
3064
2536
2263
2377
2054
1995
3013
2766
2700
2982
2908
2318
2132
2566
2513
2869
3053
3039
2929
2201
1764
2336
3191
3712
3949
3431
3096
2932
2560
2408
2959
3787
3824
3141
2902
3463
3563
2786
2873
3478
3414
4662
4119
3126
3045
2671
3064
3173
3872
4618
4644
4365
3211
2443
2513
3107
4680
5052
4463
4361
4268
4036
3600
3564
3830
4461
4860
4871
4949
4329
3833
4575
4592
4286
5078
5151
4718
4222
4214
3666
3709
4004
4498
5332
4900
4215
4068
4065
4401
3928
4508
4631
4798
4425
3669
3354
3525
3340
3364
3755
4646
4350
3451
2979
2590
2764
3259
3694
4008
4034
3697
3380
2742
2471
2600
2992
3898
4144
3725
3221
2978
2348
2543
3088
3329
3516
3296
3325
2852
2934
2924
2611
2826
3324
3468
3333
3103
2960
2633
2532
2851
3531
3686
3377
3448
2827
2077
1458
2376
3224
3419
3638
3716
2920
2138
2380
2923
2582
3083
3612
3478
3161
2670
2686
2557
2504
3268
4033
3378
2917
2632
2748
2796
2271
2530
3773
3347
3180
3712
3250
2504
2509
2970
3486
3741
3604
3042
2992
2873
2526
2767
3348
3629
3566
3705
3729
2800
1987
2458
3298
3803
3888
4011
4000
3032
2172
2500
2424
2954
3876
3950
3605
3298
2965
2070
1918
2958
3708
3638
4085
3716
2737
2616
2840
3523
3795
3223
3511
3996
3663
3230
2855
2826
3271
3870
4161
4130
3924
3024
2423
2649
2859
3323
3646
3617
3743
3738
2991
3173
3367
3521
3994
4679
4383
3696
3719
3717
3707
4141
4345
4049
4224
4239
4101
3951
2933
3122
4300
4474
4098
4259
4047
3833
3537
3813
3890
4182
4486
4211
4207
3942
3135
3079
3406
3649
4018
4196
4321
4170
3364
2989
3471
3899
3889
4431
4277
4026
3874
2979
2267
2838
3818
4288
4723
4730
4539
3543
3106
2836
2908
3252
3679
4162
4085
3371
3020
3710
5239
5570
6958
9303
9958
10362
11055
11208
10350
10158
10376
10509
9205
7721
6542
4634
3597
3062
3562
4535
4505
4731
4346
3336
3141
3473
3797
3699
4554
5534
4376
3161
3243
3640
4196
4308
4253
4263
4702
4612
3859
3727
3717
3792
4717
5372
5037
4318
3981
4330
4227
4449
4957
5288
5066
5062
4715
4371
4735
4778
4935
5240
5268
5655
5350
5052
3955
3923
4607
5108
5148
5612
5197
4764
4809
4957
4699
4858
5523
5786
5927
5163
4237
5022
5043
4769
4857
5532
5744
6043
6009
5645
5104
4796
6186
6480
6476
6677
6549
5819
5582
5798
5754
6374
7028
6999
7072
6679
6319
5995
6379
6432
6905
7456
7606
7314
6654
6656
6580
6615
7110
7406
7359
7225
7176
7179
6790
6494
6757
6808
8206
8154
7516
6908
6472
6360
6961
6917
6961
7295
7117
6349
5858
5953
5853
6015
6497
6564
6628
6580
6164
6048
6029
6275
6667
6935
6713
5578
5952
6481
5483
6264
6725
5626
6658
7172
6666
6056
5480
5719
6100
6602
7039
6940
6576
6222
6239
6505
6195
6370
7640
7592
7191
6632
5970
5963
6027
6328
6403
6387
7285
7082
6401
5991
5768
5963
6363
7115
6898
6744
6857
6505
5702
5931
6513
6633
6759
7419
6395
5501
5447
5569
6229
6308
6557
6709
6686
6337
6094
5846
5913
6122
6854
7537
6966
6990
5762
5300
5575
6459
6291
6503
6528
6192
5854
5431
6060
6288
6490
7376
7491
6962
6100
6742
6543
5964
6045
6480
6686
6829
6466
6699
6267
5679
5704
6238
6517
6436
6911
6885
5859
5140
5659
6148
6648
6974
6874
6844
6337
5584
5424
5499
5903
6612
6634
6970
6775
5490
5766
6075
6516
7326
7019
6991
6891
6387
6041
5524
6094
6679
6981
6624
6666
7044
7122
7076
7004
7263
7689
7356
7551
8059
7806
6918
6125
6447
7112
7907
8238
8191
7310
6842
6554
6780
7134
7211
7814
8211
7658
6456
6424
6369
6189
7136
7270
7840
7633
7223
6542
5533
6274
6716
7491
7747
6942
5843
6609
6802
5586
5713
6657
7114
7290
6998
6607
5658
5591
5967
6274
6792
7031
6887
6561
6295
5853
5851
6380
7116
6197
5885
6366
6095
5606
5154
5164
5672
5721
5972
6078
6031
6339
6874
7180
7641
9284
11372
12348
12442
12697
12606
12237
11729
11580
11420
10726
10064
7953
5898
4698
5118
5374
5878
6736
6261
5593
5225
5205
4764
5128
5491
6086
6315
6368
6001
5501
5182
5389
5539
5908
5823
5574
5953
5287
4296
4775
5366
5929
6568
6561
6053
5650
5173
4905
5217
5356
5613
5839
5769
5871
5763
5254
5029
5823
6240
6310
6448
6407
6208
5504
5292
5231
5321
5979
6607
6412
6094
5233
4951
5163
5399
5817
6022
6545
7019
6235
4997
5536
6007
5808
5867
6366
6351
5966
5602
5057
5560
5869
6350
6470
6579
6392
7021
6789
5859
5791
6030
6855
7154
7223
7679
6793
6577
6132
6171
7026
7856
7588
7281
6882
6159
5881
6599
7071
7216
7114
6930
6322
5744
5702
5791
5881
6264
6810
6851
6526
5858
5083
4715
5037
5699
6452
5966
5042
5104
4373
4226
4780
4898
5089
5314
5181
4555
4170
3559
3766
4008
4252
4735
4718
4799
4338
3915
3306
2955
4177
4434
4380
4699
4798
4257
3420
3453
3236
3521
4313
4315
4172
3842
3323
3069
3269
3764
4484
4103
3920
3575
3557
3456
3335
3695
4446
4514
4094
3855
3474
3331
3111
3285
3940
4141
3755
3985
4033
3170
3403
3726
2671
2855
3819
3833
3784
3372
3168
2602
2612
3235
3824
3659
3300
3456
2711
2582
2830
2957
3304
3573
3887
3864
3644
2688
2442
2742
3135
3418
3213
3212
3066
2954
3078
2587
2612
3328
3654
3086
3015
2695
2530
2864
2845
3038
3135
3480
3384
2664
2209
2622
2780
2840
3560
3652
3482
3049
2757
2354
2423
2373
2446
3436
4018
3269
2586
2597
2437
1973
2407
3259
3442
3458
3444
2118
1908
1873
2502
2823
3172
3389
3124
2183
1841
2354
2373
2532
3132
3792
3376
2874
2330
1859
2008
2095
2809
3202
3579
3253
2553
1969
1736
2075
3109
3905
3563
3254
3159
2182
2374
2566
2788
3240
3958
3493
2863
2708
1818
2135
2890
3631
3598
3682
3367
2943
2535
2166
2012
2204
2746
3002
3362
3267
2622
2126
2592
2592
2616
2806
2700
3191
2467
2043
2425
2185
2404
3026
2921
2940
2872
2369
1703
2141
1705
2691
3649
3108
2597
2162
1788
1719
1712
2135
2628
2772
2378
1855
1784
2113
1909
2055
2043
2275
2672
2574
1806
1356
1556
1060
1185
2113
3332
3890
4295
4942
5971
6849
7973
9339
10096
9753
9484
8287
7405
6432
5794
5203
4310
3204
2813
2704
2012
1384
984
1472
2086
2725
3108
2497
1310
1259
1152
1650
2440
2272
2720
3521
2191
1451
934
1255
2207
2800
3010
3057
3007
2578
1801
1573
1749
2781
3597
3643
3095
2703
2428
2223
1648
2598
3209
3373
3371
2982
2850
2560
2618
3239
3797
3863
4199
4396
3805
3177
3152
3257
3327
3552
3752
4119
4290
3586
3178
3533
3430
3471
3907
4393
4312
4300
3598
2779
2746
3344
3929
4451
4121
4020
4000
4254
3946
3412
3589
4686
5322
5502
4680
4308
4235
4184
4764
5416
5604
5607
5038
4495
4259
3954
4643
5396
5623
5771
5534
4998
4574
4143
4301
4825
5373
5534
5273
5331
4675
3786
3737
4153
4541
4506
4556
4596
4380
3854
3409
3471
3719
4444
4627
4277
4091
3867
3371
3068
2879
3538
4101
4309
4243
3454
3183
2679
3191
3286
3254
3568
3484
2849
2572
2718
2723
2973
3290
3766
3659
3689
3196
2558
2450
2605
3025
3537
4016
3828
3114
2839
2355
2107
2669
3192
3317
3279
3583
3494
2808
2605
2810
3268
3311
3553
3577
2885
2495
2482
1874
2495
3639
3773
3298
3400
3418
2004
1943
2332
2657
3558
3663
3347
2992
2682
2069
2050
2834
2975
3048
2917
3390
3218
2129
2102
2257
2599
3178
3101
3069
2658
1959
1792
1673
1768
2790
3870
3713
3014
2428
1732
1486
2144
2635
2658
2650
2693
2552
1867
1718
2680
3187
2517
2969
2879
2177
1703
1386
1167
1644
2284
2747
2923
2730
2154
1406
1675
2264
2648
2967
3105
2978
2232
2122
1638
1308
2024
2517
2564
2394
1833
1475
1583
1749
1465
1780
2581
2351
1917
1929
1604
834
1475
1353
1599
1777
1917
1954
2018
1768
1594
1197
1403
1796
1946
1736
1338
1277
1073
1372
1629
1770
1826
2566
2541
1703
1050
1063
1372
2234
3154
3134
2684
1896
1558
1634
1655
1798
2323
3217
3162
2359
1842
1569
1858
1445
1794
2711
3149
2935
2309
1925
1561
1349
1523
1610
2122
2216
1438
947
1418
1547
1874
2272
2765
2298
2043
1849
1096
838
1036
1576
2391
2554
2235
2108
1510
888
890
1261
1290
1771
2401
2299
1357
614
819
1207
1588
2411
2355
1785
1797
922
164
284
211
619
1200
1957
2764
2307
2203
3600
5381
6629
8004
8860
9548
9317
8648
7580
6837
5849
5369
5238
4137
2769
2020
1516
1119
1144
1883
2447
3116
2732
2027
1663
1593
1062
2241
2043
2194
2436
2536
2791
2219
2020
1795
2167
2998
2998
2434
2408
2178
1179
1260
1383
1760
1962
1893
2132
1538
995
913
916
1436
2264
1908
1873
1775
1068
813
989
1255
1997
2529
2060
1829
1399
784
835
1160
1192
1761
3111
3000
2648
1772
1115
826
1483
2312
2796
2715
2413
2219
1778
2064
1509
1809
2723
2569
2500
1722
714
707
1701
2214
2517
2684
2996
2688
2155
1779
2012
2187
2220
2515
2870
2390
2329
2318
2019
1885
2333
3074
3632
3101
2381
2561
2701
2343
1713
2440
3433
3752
3336
2842
2332
2037
2231
2453
2510
2928
2770
2576
1908
1295
1169
1710
1917
2077
2392
2393
1825
1039
678
1047
1690
1787
2040
1793
1086
697
1085
608
465
1731
1758
1671
1487
614
517
362
436
834
1327
1931
1940
1754
916
404
567
993
1066
1220
2032
2079
719
323
453
753
1264
2545
2191
1823
1140
-181
183
1054
1126
1658
1332
1521
1843
1021
1016
567
768
1950
2189
1808
1331
1392
1047
504
517
927
1847
1987
1863
1456
1199
760
348
608
1326
2078
1852
1951
1814
1443
1077
785
1175
1222
1167
1892
1295
913
844
724
1335
1934
1606
1064
1464
1747
980
545
929
1107
2158
1790
1060
1114
910
615
-31
331
1251
1279
1341
1252
472
967
743
452
1022
1528
1457
1481
617
546
470
402
796
847
1124
1271
949
215
-487
-253
626
988
1387
1513
1135
945
729
3
259
585
1152
1539
1451
804
-90
-30
361
596
1670
2215
2178
1763
1469
583
712
722
947
976
780
1579
1914
926
504
246
571
1280
1665
1932
1748
1192
600
678
853
1478
1871
1953
1670
1047
908
667
527
955
1497
2065
1877
1607
1330
783
599
593
258
878
1648
2025
1529
413
-51
-28
444
605
969
976
536
16
459
189
128
752
571
836
1242
838
309
-151
-240
266
734
1228
1247
892
548
102
-322
-459
556
852
1173
411
-804
-1237
-1117
-1050
-669
-127
577
1554
1642
1381
1345
2229
3711
4683
5936
7566
7759
6624
5131
4152
3676
3653
3522
2657
1714
394
-547
-1068
-1027
-700
-61
593
697
100
-610
-789
-807
-848
-321
603
429
249
378
-434
-1566
-951
550
591
638
586
313
146
69
-373
-494
85
472
397
507
-264
-413
-662
-500
248
643
622
516
571
566
104
-1096
-708
87
686
917
684
160
-209
-229
354
679
847
1706
1230
391
311
32
263
268
562
1151
1309
1208
930
-11
-73
383
1090
1612
2169
2057
1821
969
641
639
1132
2005
1936
2220
2388
2101
1686
1308
1553
1695
2515
2916
2107
1445
1568
1683
1466
1741
1827
2072
2951
3549
3125
1494
1225
1577
1997
2300
2821
3097
2723
2150
1438
1630
2298
2435
2259
2621
2032
1577
982
565
703
1328
1308
1871
2022
1726
957
629
490
12
753
1218
1408
1321
800
205
4
-97
177
608
1804
1524
-203
1
71
-477
-464
80
481
954
771
158
-272
-354
-12
261
593
521
528
291
-157
-468
-490
26
713
1499
1527
1095
415
-739
-1280
-717
-14
532
1537
1212
339
-179
-132
-92
-29
326
642
873
358
-486
252
-139
-839
-57
982
1406
1053
282
-224
-353
-818
-634
38
543
737
651
248
-382
-526
-760
-530
290
485
177
-66
-515
-886
-759
-509
80
382
196
49
-188
-576
-709
-37
652
119
-284
50
-244
-581
-637
-723
-703
38
159
449
150
-660
-947
-1345
-933
183
524
269
-482
-590
-734
-1038
-1105
-668
-471
-70
-646
-862
-982
-1068
-1149
-1376
-727
-381
-347
-424
-763
-1394
-1229
-1361
-596
-384
-477
-540
-713
-1729
-2310
-1730
-1438
-735
-36
-139
-36
-343
-1372
-1730
-1472
-1026
-247
-18
-285
-416
-1032
-1516
-1034
-711
-568
-473
187
-123
-437
-1330
-1426
-1363
-761
-772
-563
-421
-684
-1233
-1855
-1651
-951
-533
-448
-762
-785
-1029
-1293
-1384
-1518
-1475
-749
-766
-919
-1111
-1805
-1983
-1963
-1475
-901
-971
-1267
-1460
-1367
-1372
-1798
-1974
-1257
-499
-1136
-1144
-1530
-2170
-2568
-2785
-1977
-1640
-1581
-1589
-1969
-2154
-1490
-446
431
1431
3449
4422
4638
4602
3981
3759
3226
2912
2773
2396
2202
378
-1667
-2475
-2723
-2053
-1708
-2039
-2167
-2020
-2180
-2277
-2543
-2548
-2503
-2023
-1509
-1685
-1754
-2008
-1911
-2371
-2290
-1611
-1213
-1082
-1512
-1943
-2100
-2303
-2305
-1939
-1270
-1037
-1201
-1806
-2215
-1988
-2036
-1586
-1121
-1200
-995
-863
-1764
-2000
-1522
-1663
-1375
-1622
-1455
-1059
-1685
-1637
-2113
-2174
-1953
-1350
-658
-388
-926
-1398
-1852
-1917
-1853
-1533
-625
-800
-725
-1359
-1885
-2550
-1872
-916
-592
-290
-321
-284
-1487
-2116
-1534
-21
257
86
13
-337
-966
-1459
-1306
-1182
-997
0
787
763
282
-533
-1116
-813
-1151
-561
577
186
-232
-252
-539
-817
-958
-516
45
595
95
-548
-1152
-1259
-1377
-1584
-592
33
29
-469
-853
-1496
-1670
-1427
-1520
-1333
-731
-516
-846
-1562
-2436
-2870
-2438
-1473
-1301
-1347
-1295
-1687
-2245
-2722
-2588
-2119
-1589
-875
-726
-2003
-2956
-3252
-3295
-2829
-2208
-1639
-1698
-2279
-2201
-2669
-2709
-2527
-2195
-1948
-2220
-2093
-2188
-2373
-2754
-2912
-3071
-2517
-2060
-2198
-2166
-1618
-2691
-3281
-2528
-1977
-1681
-1678
-1884
-2082
-2164
-2533
-2535
-1917
-2192
-1722
-1040
-1869
-2249
-2600
-3711
-2830
-1297
-1165
-1257
-1352
-1933
-2539
-2657
-2520
-1998
-1509
-1458
-1914
-1729
-2085
-2674
-2521
-2334
-1806
-1924
-1390
-1457
-1813
-1988
-2227
-2210
-2218
-2256
-1897
-1565
-1259
-2688
-3032
-2546
-2189
-2298
-1566
-1525
-2388
-2733
-2568
-2141
-2040
-1885
-1653
-1402
-1593
-2126
-2619
-2588
-1864
-2005
-2041
-1288
-1082
-1549
-2240
-2012
-1711
-2066
-2186
-1683
-1191
-1445
-2067
-2629
-2594
-2424
-1926
-1821
-1098
-981
-1731
-2006
-2997
-2935
-1923
-1494
-1300
-1746
-1724
-1864
-2510
-2625
-2876
-2126
-1721
-1371
-1380
-1610
-1977
-2587
-2552
-2025
-1491
-789
-1059
-1636
-1309
-1929
-2113
-2187
-2171
-1804
-1332
-860
-1589
-2099
-2392
-2431
-2294
-1845
-1389
-1407
-1287
-1880
-2483
-2520
-2578
-2993
-2607
-1539
-1388
-1913
-2296
-2396
-2346
-2271
-1868
-1974
-1893
-1676
-1992
-2491
-2619
-2336
-1838
-1550
-1358
-1619
-1873
-2285
-2766
-2939
-2828
-2126
-1841
-1852
-2103
-2299
-2544
-3271
-3750
-2659
-2657
-2125
-2141
-2468
-2897
-2597
-1893
-862
352
1662
3043
3667
3775
3659
3253
3089
3205
2800
2777
2417
1335
-622
-2039
-3140
-2508
-1785
-1493
-1893
-2707
-2967
-2315
-3086
-2903
-1834
-1636
-1520
-1610
-1653
-2169
-2650
-2703
-2055
-1010
-203
-959
-1436
-2062
-2016
-2244
-2142
-1268
-1046
-1577
-1608
-2169
-2499
-2155
-2108
-2164
-1742
-922
-939
-1577
-1704
-1663
-1908
-2027
-1791
-907
-786
-846
-1332
-1255
-1282
-1545
-1520
-1294
-71
-369
-1346
-1543
-1563
-1752
-1573
-586
-412
-430
-553
-905
-1830
-1741
-1066
-1119
-893
-806
-469
-510
-1216
-1690
-1654
-1360
-652
-184
-404
-267
-475
-1022
-923
-806
-669
3
307
690
107
-587
-690
-359
-137
574
923
889
743
486
-150
-342
-168
-47
551
219
577
863
441
503
325
156
297
825
880
308
-285
-745
-797
-538
-224
163
367
-161
-1399
-1572
-1246
-1435
-1005
-560
-579
-787
-835
-1326
-1586
-1771
-1704
-359
-528
-805
-771
-1046
-1106
-1694
-1944
-1857
-1048
-188
-741
-884
-1748
-2213
-1707
-1099
-1261
-932
-613
-738
-1369
-2072
-1797
-1739
-1358
-1044
-708
-647
-1260
-1880
-2123
-1800
-1514
-1273
-1039
-861
-1302
-1353
-1242
-1050
-1767
-2228
-1428
-929
-778
-705
-1582
-1675
-1864
-1871
-1336
-968
-626
-966
-1426
-801
-1548
-1528
-1133
-467
31
-346
-928
-1493
-2006
-1557
-797
-282
-172
-358
-680
-1088
-1238
-2043
-2044
-1179
-613
-177
353
-487
-758
-1043
-1691
-1604
-644
-379
-1034
-810
-677
-1266
-1579
-1408
-880
-504
-69
-7
-814
-1574
-1135
-1206
-1032
-736
-630
-71
107
-792
-1503
-2045
-1345
-1024
-796
-285
-145
-494
-189
-840
-1989
-1205
-560
-479
-133
-471
-983
-1288
-1063
-1113
-1001
-473
-54
-438
-1124
-1224
-1063
-1056
-968
-437
-485
-172
-253
-754
-1629
-1601
-956
-651
-509
-106
-109
-585
-906
-994
-1133
-587
111
567
-200
-710
-789
-970
-962
-668
-82
73
-20
-128
-1140
-1274
-1002
-1058
-672
-664
-59
-103
-641
-713
-1519
-1638
-773
-469
57
118
-227
-1118
-1462
-1445
-1321
-978
-724
-37
-386
-1129
-1430
-1698
-1720
-1336
-578
174
-164
-714
-1150
-1378
-1863
-1349
-419
-364
-632
-584
-937
-1210
-1871
-2162
-1903
-1282
-1337
-1022
-931
-1745
-2011
-1855
-662
60
317
1674
2840
3460
4169
5141
5435
6573
7030
6925
6186
5182
3200
2169
1486
35
-451
-322
-239
-449
-648
-694
-1208
-1971
-1415
-600
-577
-1112
-1486
-1124
-1067
-1436
-1368
-244
-507
-199
235
-420
-1060
-1459
-1517
-782
-3
-3
-160
-465
-786
-1073
-1491
-1262
-462
-45
10
-60
-538
-902
-701
-678
-856
-457
306
-47
-552
-469
-467
-850
-364
176
468
575
-142
-307
-832
-878
-884
-199
438
313
541
161
26
-92
-398
-282
145
583
1161
594
-48
82
222
-32
-187
355
489
638
635
-147
184
324
292
540
1566
1424
1276
989
647
295
686
1589
1774
1907
1597
1095
782
415
954
919
1199
2176
1726
1844
1157
464
1002
1094
1210
1732
2244
1784
1299
698
316
604
933
1190
1342
1588
1111
301
-72
-47
156
550
1341
1772
686
-215
-163
72
26
-45
714
890
607
184
-177
-105
171
-333
723
1551
997
758
318
-338
-420
150
123
237
916
764
577
-72
-357
-418
-119
529
873
914
851
366
-828
-848
409
787
589
745
622
1099
558
-118
-321
44
523
1193
1554
1463
323
-462
-468
-56
835
1522
1662
1463
1077
477
-180
-163
-160
872
1654
1305
859
310
-61
19
20
205
858
1425
1404
767
93
-374
-163
588
1166
1213
862
608
505
-96
-118
-204
176
1173
1402
1128
713
286
395
587
598
961
1522
1261
1181
618
-6
491
853
1320
1900
2479
2580
1767
387
-546
-109
1056
1416
1776
1662
1040
824
919
874
843
1068
1530
1574
1235
1271
1363
1120
918
1240
1540
1866
1490
1873
1785
1064
1398
1704
1908
2119
1805
1519
1299
1115
883
700
1141
1823
2007
2421
1797
862
841
885
567
1209
2126
2554
2236
741
191
321
844
1573
2125
1919
2028
2002
1408
1309
918
966
1908
2026
1300
1192
825
846
401
-23
1058
1724
2111
2240
1503
734
11
43
106
89
672
1451
1117
137
-152
-35
-109
262
791
620
1020
1083
177
-389
-529
15
505
497
636
588
198
-321
-332
-157
79
376
639
602
477
-106
-864
-661
-554
-68
722
822
395
261
-526
-968
-730
-57
240
59
42
-215
-174
-331
195
1333
3132
4522
5437
6308
6837
7315
7111
6371
6571
5908
5590
4663
3151
1091
-558
-419
84
-93
-477
-131
618
-359
-1277
-1119
-645
90
131
409
252
-295
-827
-1012
-769
-399
269
855
614
451
-308
-1066
-710
91
779
840
436
130
-463
-114
-205
-84
200
341
899
1192
1087
111
-307
357
559
217
803
649
299
209
162
-53
-562
455
1046
1154
1071
568
138
-67
178
265
751
1765
1542
1283
759
-31
139
961
1234
881
1627
1704
814
450
348
424
1114
1788
2775
2547
1711
1031
1384
1520
1329
1815
2225
2064
2109
2059
1185
947
1785
2414
2454
3177
3082
2214
1642
1577
2233
1936
1587
2207
2692
2814
2518
2059
1801
1540
1877
2082
2511
2724
2165
1361
1178
1426
877
1446
2107
1782
1444
1284
449
411
1010
1107
1211
1299
1255
702
246
100
-40
48
1326
1437
1268
624
-215
-623
173
277
153
682
599
875
597
-220
-425
-356
-95
689
1088
762
388
-287
-96
-446
-290
719
1128
917
565
899
-586
-684
-441
-43
910
1331
1175
1090
949
-174
-576
-669
172
1235
1487
1503
1030
369
147
248
711
1175
1215
927
1097
1039
241
-135
309
736
1183
1208
1553
1077
81
542
1121
968
1260
1505
1476
1242
330
452
427
980
1523
1460
1531
1142
1017
749
647
432
458
1300
1553
1609
1654
1264
729
654
1061
1656
1557
1652
1660
945
714
1069
1405
1289
2004
2692
2386
1260
549
681
898
1285
1735
2133
2255
2307
1681
958
735
1448
1695
1273
1715
1785
1525
912
813
697
1006
1437
1729
1907
1814
1131
867
468
520
1075
1199
1451
1459
1051
440
297
419
979
1230
1181
1108
1267
984
295
256
1073
1052
1423
1757
2077
1380
850
573
646
683
1211
1767
1132
1196
1037
489
4
415
1010
1148
1070
1284
1512
1471
804
248
726
1924
2214
1865
1347
1111
964
1405
1145
1007
1750
2266
2244
1512
436
304
875
901
1549
1792
1835
750
667
553
477
469
1933
2052
1471
1237
673
7
256
790
1251
1445
1369
1155
678
351
344
365
808
1405
1331
1158
618
651
381
-479
-110
972
1552
1606
1308
495
175
259
349
662
1115
992
940
902
158
-721
-1186
7
525
1265
2838
3205
3261
3856
4912
6140
7160
8254
8948
8414
7265
6369
5421
4297
3382
2666
2057
1319
1135
1155
614
64
199
588
284
328
379
449
200
-518
-329
172
1411
2364
1971
1133
857
158
-30
724
502
838
1232
1253
1447
1771
1736
1272
1449
1674
1842
2252
2549
2382
1130
694
799
1469
2243
2550
2651
2286
1619
1709
1548
1365
2295
2381
2592
2714
2258
1429
1254
1510
1787
2406
3184
3000
2075
1974
1172
1078
2101
2494
3024
3966
3364
2427
2194
1774
2864
3109
3309
3099
2593
2803
2995
2291
2034
2462
3134
3307
3450
3361
3406
2713
2405
2908
3724
3551
4107
4503
3570
2728
2940
3078
2895
3580
4072
4107
3486
3292
3002
2804
3165
3466
3944
4497
3841
3864
3282
2332
2337
2889
3500
3626
3482
3144
3109
2637
2330
2402
2788
2870
2949
3156
2614
2358
2088
2324
2820
2448
2627
2890
2738
2314
1732
1746
2063
2113
3032
2717
1701
1462
1024
849
900
1335
1849
2426
2501
2195
1619
993
905
1503
2078
2285
2206
2564
1929
1016
668
1056
1490
2226
2014
1833
1927
1549
779
385
1094
1629
1946
2526
2354
1525
1474
1375
1384
1772
1624
1671
2109
1864
1548
1023
1193
854
1929
2361
2585
1592
563
688
1405
1911
2173
2439
2565
2211
1622
1132
876
767
1439
1888
2068
2464
2464
1184
630
690
905
1936
2303
2330
2193
1600
1352
851
947
1480
2016
2166
1985
1630
888
729
896
773
1249
2034
2258
1778
765
703
980
810
1423
2309
2445
1854
1477
1295
1453
1379
964
984
1800
1866
1784
1396
909
890
1415
2070
2091
2064
2547
1501
1025
879
1414
2605
2102
1961
2177
1542
801
860
1124
807
1101
1390
1480
1771
1592
1253
1234
1276
1211
1594
1884
1931
1985
1371
1406
1567
1227
2253
2227
2021
2547
1752
1066
576
734
1746
1951
2506
1911
1542
1444
1197
938
1204
1319
1354
1604
1334
1539
935
51
30
220
1158
1538
1320
877
591
397
-199
147
1584
1574
1568
1416
1134
627
102
275
723
1230
1790
1894
1444
519
146
144
507
1101
1794
1911
1344
202
65
-115
222
122
595
1326
1112
698
290
-8
58
1290
2478
2937
3860
4533
5057
5874
6794
7434
7932
7750
7360
6796
5939
4434
2554
1780
1464
243
592
913
819
188
-1
-103
206
20
354
385
388
633
651
776
242
405
1131
1359
1691
1520
978
548
259
206
965
1514
1436
1200
1085
884
617
524
1052
1252
1497
1266
1186
441
-442
-433
-294
686
1523
1784
1599
1003
690
98
960
1238
724
1109
1421
827
549
591
371
410
1462
1389
940
1153
796
613
616
281
776
1294
1514
1362
1284
796
748
500
516
1514
2419
2257
1932
1631
964
308
536
1047
1699
2443
2787
2162
1517
1208
1190
1623
2413
2856
2753
2380
2256
1463
1569
1884
2248
2844
2674
2867
1936
2009
1769
1345
1545
1796
2070
2428
2499
1476
581
1024
1052
1083
1628
1512
1362
842
919
698
645
626
979
1247
1178
484
368
-65
-341
-5
311
872
842
437
522
-372
-667
-642
213
929
902
630
306
37
-231
-191
-356
360
495
686
1006
610
-149
-363
-355
302
962
1231
1068
875
665
-150
-542
-145
164
1132
1688
1053
733
497
262
-44
419
1205
1916
1966
1536
813
134
254
707
1539
1983
2016
1794
1515
851
420
478
1339
1074
1872
2295
1477
1144
1080
1248
1530
1696
2222
2308
1955
1311
1337
1146
1409
1840
1681
2006
2220
1855
1554
1259
1016
1113
1824
2450
2335
1428
1465
1769
1306
1182
1615
2418
2536
2279
1822
1207
955
891
1324
2100
2259
2210
2025
1502
781
630
756
1464
2557
2750
2042
1500
1003
779
807
1168
1749
2155
2732
2727
2094
1139
989
1353
1831
2573
2438
1909
1655
1908
1405
1231
2011
2654
3053
2960
2302
1832
1758
1467
1402
2080
2314
2261
2520
1702
997
1189
1694
1830
1760
2411
2832
1889
1243
680
792
1301
1469
1711
2223
2133
1450
861
457
286
885
1607
1427
972
984
605
280
91
483
395
913
1554
1444
948
740
711
829
1047
1131
1506
1573
577
269
403
-52
158
882
709
437
425
204
-11
11
342
1166
2199
3417
4393
5301
5686
6300
7518
7507
8127
8408
7481
6194
5208
3739
2693
1314
1049
1324
1406
758
765
-144
-825
-311
244
325
670
791
627
602
-25
-217
189
898
1182
1469
1021
650
259
-62
-27
329
604
1255
1996
1634
679
-25
147
447
993
1571
1452
966
877
236
236
813
1117
1313
1247
1761
1802
1597
757
668
1151
1120
1582
2006
1942
1579
1299
950
426
1079
2120
2858
2470
1751
1348
1011
938
817
1561
2347
2440
2200
1674
1377
1465
1485
1934
2929
2725
2331
2068
2209
1623
1502
1576
2780
3164
2801
2784
2541
2124
2336
2593
2863
3110
3305
3247
2614
2441
2330
2812
2917
3433
3963
3668
3155
2998
2056
1754
2257
2638
3277
3546
3440
2743
1510
1501
2278
2184
2422
2789
2815
2116
1727
1633
1241
1112
1954
2803
2184
2098
1732
1358
989
944
1218
1602
1837
2151
1605
932
185
509
1091
1410
2136
2060
1495
1345
984
785
1094
1400
2000
1844
1885
1317
905
917
646
863
1135
1658
2325
1761
637
391
301
283
952
827
1327
2094
1445
517
248
327
684
1214
2069
1973
1346
1250
1304
1196
1183
1254
1854
1549
1276
1361
745
481
877
1518
1985
1915
1901
1597
1050
1000
766
804
1079
1651
1811
1877
1492
691
412
548
267
834
1165
1004
899
174
-51
229
268
649
1259
1244
987
968
374
-355
97
1014
1104
1081
948
914
746
519
388
796
648
939
1348
1618
1018
356
251
507
1039
1952
1974
1991
1376
679
164
58
982
1800
1324
1564
2221
1899
1105
509
705
1162
1590
1827
2603
2331
1550
1297
1279
1668
1854
1711
1803
1645
1539
1182
946
1311
1211
1147
1320
1634
1455
884
475
834
1415
1547
1567
1479
1829
1479
535
305
468
769
940
1384
1405
1231
826
588
962
566
1071
1613
1236
1186
755
261
179
445
776
1383
1621
1313
1212
1066
371
31
672
939
1107
454
612
258
-358
-530
-558
-430
952
1763
1879
2318
2842
3476
4282
5608
6787
8161
9235
9075
7794
6006
4871
4395
4416
3896
2070
495
-722
-1025
-376
40
453
743
1065
1102
839
523
25
-337
211
1060
1419
1337
957
314
-444
-606
-135
443
1097
1237
1346
1451
681
40
29
-103
676
1065
1070
1224
1056
284
97
93
567
1489
1194
858
1125
866
395
255
518
1001
1387
1406
1158
909
716
202
472
1019
1634
1955
1672
1264
432
360
689
446
1928
2311
1218
1003
1305
900
584
953
1254
1683
2350
2421
2231
1504
1112
1292
1666
2184
2466
2746
2730
2152
1802
1515
1797
2533
3021
3276
3179
2490
1735
1906
1929
2399
2737
3096
2900
3314
2908
2532
2696
2604
2601
2769
2691
2964
2535
2085
1638
1561
1944
2602
2757
2512
2136
1475
1005
1125
1103
1210
2003
2084
1855
1306
297
-10
1085
999
846
1615
1668
900
-291
84
97
36
960
1122
1348
1433
619
-226
-495
-301
419
837
903
1046
797
55
-190
-327
-40
-60
454
1223
881
32
59
-34
-101
670
757
863
278
207
-72
-208
-119
388
445
381
457
645
339
-75
-499
-503
-59
687
947
327
-258
-18
-98
-289
370
346
150
825
569
327
-296
-184
4
168
447
605
669
173
-98
-1
-240
-230
638
1035
920
460
32
-482
-497
2
184
452
705
213
-235
-457
-288
-410
-557
191
869
1342
1190
147
-643
-1280
-887
232
660
397
416
306
56
-705
-799
-145
281
330
685
708
376
-742
-423
533
1150
491
779
538
35
-382
-360
-81
358
934
745
642
287
-181
-349
-793
-474
422
766
340
357
339
-13
-340
-83
423
538
448
163
352
-205
-892
-883
-514
210
708
1067
807
-74
-721
-732
-429
-53
257
408
527
498
-403
-918
-828
-365
366
1045
1069
569
48
-723
-710
-797
-968
-160
98
-314
-310
-1270
-1270
-315
-159
-162
635
1444
1769
2580
3300
3814
5015
6164
6611
6494
6338
5759
3999
2393
2867
2039
1342
926
228
-261
-987
-1185
-1194
-1042
-375
-296
-414
-244
-627
-772
-346
-350
-400
-264
327
83
-109
-262
-866
-825
-421
317
611
476
115
-659
-365
-398
-345
-271
-65
545
1071
680
133
-354
-560
-675
-65
647
938
774
125
-247
-397
-536
-184
460
809
870
500
-134
131
749
-70
350
814
863
1006
830
-359
-226
228
583
1283
1080
1443
1399
625
48
-33
579
1480
1630
1774
1583
1078
811
296
555
1057
2019
2519
1984
1531
1381
1181
1268
1603
1620
1996
1965
1727
1522
1042
1331
1960
1793
2378
2678
2095
1660
1508
1299
1255
1485
1801
1816
1943
1361
1077
906
860
1267
915
1451
2045
1923
1678
1009
582
564
521
1129
1712
1286
656
337
-97
-54
-101
-307
1178
1511
796
-169
-725
-475
-122
323
522
166
-184
-197
-164
-560
-876
-642
-188
-182
180
317
105
-133
-766
-718
-5
463
279
129
-216
-984
-1085
-876
-381
527
351
688
56
-636
-746
-1140
-621
-18
290
577
457
260
-264
-863
-869
-740
98
586
595
76
-255
-292
-812
-770
-128
254
645
828
520
-234
-412
-559
-932
-238
221
558
-96
-388
-428
-504
-733
-206
290
653
429
-201
-517
-472
-881
-401
405
689
412
-133
-748
-1111
-592
-87
33
133
393
628
-86
-943
-1167
-792
-278
144
566
522
434
-72
-657
-717
-690
-795
179
750
545
57
145
-342
-163
579
1311
1019
766
629
-209
-847
-222
194
546
805
501
598
375
282
-3
214
588
818
652
957
407
96
-55
-110
12
421
1119
1106
618
263
3
-356
-74
862
1348
1067
764
720
106
-663
82
110
327
767
1230
842
213
-160
-464
-120
501
960
875
787
526
199
-728
-952
-553
-203
-4
-309
-148
252
69
520
1221
2417
3609
5128
6210
6188
6383
6232
6174
5961
5712
4960
4966
4229
2254
-181
-1099
-937
67
278
749
645
-43
-556
-1317
-1388
-801
128
625
758
615
205
-422
-1104
-957
-299
649
908
599
-75
-442
-528
-52
-132
420
907
520
481
271
116
-791
-605
244
531
1196
952
396
-125
-153
92
509
508
748
1232
867
305
-27
464
375
557
1012
603
486
611
-112
7
606
729
1036
1489
1330
976
623
431
37
516
1250
1520
1820
1815
937
814
800
962
1078
1315
1747
2786
1923
959
765
953
1854
1744
1953
1946
1981
1701
1269
1215
1339
1699
1853
2477
2262
1962
1785
1672
1423
1262
2106
2006
2341
2504
1981
1297
1068
1816
2035
1542
1861
1754
1380
981
426
614
1310
1501
1426
1783
1731
433
505
436
147
250
725
435
437
971
711
66
383
453
315
799
764
145
-638
-464
274
546
742
1452
1182
373
-131
-644
-738
-172
390
861
964
853
631
74
-514
26
499
797
704
610
756
403
-458
-658
190
1065
742
352
366
-25
-248
279
112
-133
292
823
896
821
266
-141
-416
-683
79
1233
1301
640
630
46
-339
-215
111
631
743
760
776
405
18
5
200
717
846
768
1032
709
125
-617
-260
-184
639
1563
928
-85
178
603
-178
-267
268
803
1515
1306
553
444
-289
-635
166
593
1002
1852
737
-85
-168
199
557
590
1441
1415
963
386
322
166
224
712
1253
1432
1939
2158
563
335
642
981
1246
1778
1493
1383
837
676
643
619
1040
1262
1434
1213
1427
1005
645
621
663
757
1304
1379
1102
555
685
703
257
850
1651
1940
1693
1293
808
334
1
579
1061
1775
1570
1121
636
140
-111
509
1421
2053
2311
2103
979
651
-1
298
811
1311
2031
1805
523
657
831
-133
-555
461
1329
1666
2187
2367
1976
2563
3994
5967
7477
8340
8804
8780
7667
7315
6749
6000
5416
5020
4283
2471
1464
1339
733
466
1499
1794
1929
2088
1354
538
410
980
1371
1761
2079
2022
1833
1508
1518
1464
1680
1774
2328
2486
2583
2155
1945
1936
1364
1490
1885
2313
2628
2903
2281
1930
1959
1809
2212
2999
3349
3076
2681
2295
2108
2383
2374
2777
2992
3192
3054
2775
2125
1666
2375
3301
3707
3357
3394
3255
2672
2576
2805
2997
3248
4184
4632
4141
3589
3191
3264
3203
3509
4337
4752
4752
4639
3841
3389
3273
3845
4783
5436
5278
4624
4608
4685
4387
4507
4758
5287
6065
5480
5509
4936
4754
5229
5219
5282
5518
5763
5787
5903
5652
4947
5084
5485
5808
5827
6002
5474
4995
5005
4375
4755
5611
5988
5768
5141
5134
4513
4491
4200
4693
5442
5243
4877
4790
4161
4291
4294
4735
5148
4783
4483
4826
4285
3903
3300
3695
4660
5015
5464
5299
4538
3848
4067
4241
4872
5472
5647
5421
4454
3992
4027
4624
4695
5271
5452
5026
5288
4494
4058
4164
4547
4645
4906
5016
5300
5031
4657
4072
3939
4303
4770
5180
5356
5488
4668
4541
4587
4353
4826
5483
5647
5202
4856
4652
4233
4249
4132
3615
4558
5922
5830
4991
5080
4563
4746
5142
5541
5602
5499
5218
4313
3827
3960
4381
5080
5471
5451
5205
4876
4153
3708
4530
5070
5237
5364
5351
4753
4316
3897
3792
4365
4840
5080
4743
4313
4233
4558
4186
4114
4359
4282
4627
4755
3632
3003
3208
3906
4069
4187
4410
4788
4941
4476
3582
3104
3878
4216
4671
4726
4233
3760
3562
3806
3902
3996
4674
4688
4905
4605
3852
3563
3832
3486
4194
5051
4463
3932
3539
3000
3034
3560
3535
3987
4678
4635
3609
2791
2404
2785
2923
3163
3198
3210
3253
2825
2548
2298
2301
2157
2525
2681
2736
2681
2030
1513
1592
1971
2478
2729
2597
2151
1491
1059
959
1537
1568
1873
2293
2414
2296
880
465
879
715
1194
1623
1377
1093
601
-26
-296
-224
489
184
167
40
132
-209
-39
1192
2420
3152
4498
5801
6503
6746
7079
6640
6450
5724
5268
4953
3907
2224
617
-901
-1504
-1024
-224
-703
-1117
-1487
-1459
-1490
-1621
-1201
-1507
-1703
-1115
-1977
-2470
-2414
-2404
-2160
-1582
-1288
-1146
-1622
-2223
-2676
-3000
-3071
-2619
-1928
-1455
-1511
-1527
-2293
-2680
-2657
-2442
-1730
-2353
-2664
-2047
-2283
-3254
-3443
-3403
-3127
-2945
-2142
-2290
-2472
-3051
-3834
-3925
-3672
-3094
-2656
-2412
-2620
-3721
-3912
-3563
-3708
-3664
-3203
-3241
-3207
-3779
-3629
-3760
-4117
-3998
-3638
-3396
-3216
-3095
-3442
-3960
-4495
-4607
-4347
-3906
-3330
-2645
-3073
-3483
-4959
-5744
-4804
-4438
-3829
-3648
-3995
-3977
-4505
-4961
-4954
-4602
-3918
-4017
-4239
-4257
-5025
-5775
-5132
-4931
-4963
-5197
-5174
-5248
-4568
-5086
-5691
-6037
-6161
-5769
-5495
-5486
-5951
-6721
-6895
-7122
-7335
-7028
-6731
-6740
-7023
-7575
-7751
-7946
-8396
-8053
-7605
-8142
-8188
-8435
-8812
-9263
-9543
-9468
-8894
-8727
-8725
-9324
-9826
-9971
-9885
-10212
-9854
-9573
-9622
-9237
-9507
-9972
-10146
-10357
-10301
-9879
-9505
-8945
-9298
-10072
-10074
-10458
-10614
-10057
-9758
-9280
-9676
-10254
-10839
-11285
-11119
-10699
-10345
-10331
-10550
-10680
-10817
-11141
-11197
-11405
-11193
-10821
-10624
-10641
-11714
-12350
-12419
-12319
-12244
-11158
-10816
-11555
-12076
-12455
-12896
-12988
-12934
-12788
-12328
-12415
-12650
-12648
-12833
-13000
-13237
-12566
-12248
-12026
-12201
-12363
-12643
-13303
-13324
-13033
-12898
-12777
-12757
-12932
-13151
-13799
-14340
-14003
-13730
-13492
-13221
-13294
-13485
-13983
-14027
-14012
-13470
-13120
-13563
-13471
-13020
-13409
-13930
-13888
-14183
-13787
-13053
-12550
-13123
-14005
-14149
-14264
-14249
-13725
-13496
-13248
-13275
-13594
-13804
-14510
-14528
-14162
-13640
-13285
-13071
-13101
-13166
-14390
-14763
-14301
-14550
-13430
-13715
-14052
-14297
-14839
-15131
-15727
-15293
-14350
-14068
-14063
-13820
-14104
-14666
-15260
-15236
-15111
-14368
-14063
-14437
-14418
-14628
-15132
-15366
-15077
-14467
-13577
-13088
-13341
-14576
-15541
-15165
-15184
-15284
-14931
-14192
-14165
-14253
-14557
-15436
-15631
-15915
-15693
-14896
-14723
-14593
-15374
-16288
-16802
-16759
-16046
-15754
-15590
-15207
-15328
-16173
-16792
-16788
-16127
-15895
-15679
-15827
-16003
-16618
-17152
-17300
-16950
-16933
-16614
-16265
-16289
-16784
-17167
-17333
-17221
-16675
-15961
-16322
-16334
-16122
-16267
-17134
-17726
-17497
-17240
-17035
-17075
-16882
-17268
-17929
-17715
-17640
-16775
-15528
-15087
-14338
-13332
-12401
-11754
-11144
-9989
-9235
-8723
-9040
-10237
-10837
-11609
-12834
-14004
-15331
-15775
-16007
-16074
-16340
-16986
-17278
-17634
-17348
-17126
-16644
-16327
-16179
-16137
-16778
-16713
-16501
-16563
-16837
-16081
-15807
-16173
-16771
-17171
-17368
-17210
-16289
-15757
-15827
-15933
-16509
-16694
-16459
-16746
-16552
-16263
-15807
-15522
-15711
-16183
-16452
-16542
-16601
-16034
-15443
-15807
-15884
-15408
-15877
-16770
-16610
-16008
-15808
-15468
-15256
-15408
-15851
-16255
-16631
-16095
-15796
-15053
-14884
-15265
-15284
-15458
-15426
-15487
-15708
-15620
-14776
-14195
-14713
-15332
-15700
-15014
-15099
-15260
-15075
-14808
-14341
-13853
-14331
-14830
-14503
-13713
-13611
-13958
-13622
-13351
-13883
-14095
-14263
-13916
-13593
-13422
-12779
-12866
-13811
-14313
-13984
-13642
-13476
-13025
-12778
-12870
-13174
-13304
-13695
-13871
-13402
-12613
-12887
-13295
-13255
-13377
-13636
-14045
-13999
-13629
-13086
-12796
-12930
-13334
-13765
-14601
-14537
-14161
-13706
-13194
-12783
-13350
-14233
-14799
-14712
-15120
-14461
-14051
-13808
-13838
-14062
-14583
-15097
-14748
-14329
-13696
-13545
-13145
-13720
-14305
-14533
-13949
-13880
-13736
-13380
-13235
-13194
-13590
-13686
-13898
-14000
-13568
-12994
-12706
-12742
-12932
-13577
-14025
-14420
-13550
-12798
-12662
-12341
-12665
-13467
-13756
-13208
-12790
-13222
-13032
-11962
-12195
-12532
-12857
-13005
-13546
-13071
-12468
-12125
-12529
-12646
-12754
-12788
-13246
-12853
-12070
-11429
-11611
-12121
-12582
-13056
-13007
-12613
-12185
-12121
-12369
-11936
-12007
-12432
-12782
-12581
-12425
-12609
-12335
-11836
-11827
-11845
-12258
-12072
-12136
-12482
-12170
-11612
-11612
-11407
-11832
-11926
-11654
-11523
-11850
-11958
-11224
-11239
-11484
-12051
-12137
-11877
-11483
-11205
-11567
-11605
-11663
-11089
-11102
-11188
-11476
-11284
-10917
-11259
-11135
-11110
-11726
-12170
-12080
-11893
-11315
-11057
-10813
-10252
-10779
-12052
-12439
-11551
-10986
-10739
-10535
-10914
-11600
-11757
-11597
-10864
-10824
-11389
-10484
-10153
-10986
-11279
-11378
-11384
-11143
-11233
-10862
-10411
-10044
-10496
-10819
-11252
-10843
-10459
-10094
-10099
-9808
-9919
-10982
-11074
-10741
-10999
-10709
-9903
-9583
-9863
-10490
-11405
-11305
-10486
-10074
-9271
-9119
-9631
-9587
-10433
-10940
-10168
-9942
-9971
-9661
-9765
-9392
-9003
-9761
-10218
-9581
-9530
-9296
-8857
-9002
-9512
-10165
-10187
-9985
-9891
-9353
-8607
-8617
-8817
-9233
-9719
-10271
-10160
-9245
-8551
-8949
-8985
-9268
-9692
-9464
-9575
-9785
-9374
-8961
-8750
-8518
-8691
-9263
-10083
-9828
-9305
-8288
-8076
-8352
-8445
-8966
-9613
-9971
-9040
-8244
-8201
-8624
-9023
-9210
-9167
-9022
-9064
-8864
-8060
-7702
-7717
-8119
-9412
-9819
-9259
-8922
-8688
-8701
-8303
-8096
-8127
-7704
-7539
-6602
-4807
-3242
-1976
-1208
-1638
-1347
-1866
-2736
-2774
-3046
-3254
-3868
-5630
-7031
-7968
-8848
-8357
-7775
-7512
-7217
-7041
-7276
-7925
-8216
-7800
-7108
-6173
-6075
-6348
-7026
-7579
-7441
-6865
-6525
-6214
-6048
-6194
-6443
-6542
-6431
-6740
-6503
-6105
-5397
-5186
-5710
-6038
-6218
-6304
-6040
-5709
-5502
-5241
-5228
-5326
-4988
-5229
-5743
-5730
-4883
-4751
-4545
-4517
-4326
-5281
-6216
-6373
-5558
-4644
-4442
-4535
-4745
-5236
-5330
-5353
-5214
-5396
-4452
-3926
-4272
-4646
-5207
-5223
-5118
-5031
-4323
-3287
-3329
-3492
-4207
-4696
-4334
-4035
-3797
-3454
-3295
-3393
-3193
-3432
-4075
-3805
-3436
-3327
-2382
-2286
-2563
-2927
-3076
-3222
-3839
-3252
-2019
-1403
-1751
-2501
-3224
-3342
-3266
-2988
-2467
-2202
-1076
-1342
-2011
-2758
-2770
-2581
-2218
-1968
-1691
-1783
-2029
-2467
-2973
-2798
-2861
-2757
-2144
-2294
-2873
-2980
-3167
-3342
-3157
-2812
-2308
-2296
-2533
-3088
-3770
-3633
-3569
-3168
-2875
-2140
-2337
-2869
-3075
-3598
-3148
-3079
-2898
-2471
-1860
-2247
-2877
-3683
-3461
-2519
-2976
-2715
-2059
-2447
-2773
-3004
-3359
-3229
-2609
-2178
-1855
-1810
-2040
-2420
-2833
-3424
-2838
-2134
-1845
-1790
-1647
-1932
-2122
-2455
-2795
-2625
-1939
-1669
-1763
-2002
-2479
-2955
-2473
-2043
-1785
-1535
-860
-814
-1606
-1890
-1976
-2083
-1498
-1145
-785
-731
-956
-1615
-1790
-2037
-1849
-1590
-817
-34
-566
-852
-1563
-2024
-1840
-1168
-426
-258
-508
-1086
-1799
-2046
-1213
-1193
-1045
-839
-965
-1121
-868
-1358
-1593
-1401
-1272
-383
-282
-686
-793
-1557
-2170
-1838
-982
-556
-980
-830
-982
-694
-1015
-1727
-1715
-1216
-762
-350
-201
-600
-1319
-1364
-1440
-437
-481
-692
-376
189
-252
-1238
-1281
-200
-388
167
801
461
-552
-634
-653
-635
-390
-265
-54
79
-149
-115
-288
-334
-367
-354
561
1132
952
-52
-155
-581
-553
-38
359
797
333
-106
687
909
929
551
716
1114
1183
1371
1539
760
545
697
1054
1380
1123
1139
1608
1759
758
910
824
961
1609
1572
1425
1649
958
333
588
800
1088
1401
1964
1620
1252
865
450
1015
1516
1674
1551
1446
1421
966
766
979
1333
1657
1870
1807
1833
1692
1185
1147
1489
1938
2626
2051
2120
1818
1160
939
1284
1858
1854
2207
2531
1914
1012
565
927
1342
1980
2860
3833
4139
4657
5267
6435
7214
8172
8730
8660
8537
8795
7186
5528
5443
4866
3599
2853
2615
2111
1583
1428
1324
1033
1783
2559
2371
2307
2149
1641
1758
1955
1763
2533
3216
3002
2895
2464
2077
1657
2145
2730
2708
2645
2603
2720
2976
2706
2067
2590
3668
3699
3635
3390
2902
2585
2705
2747
3187
3867
3587
3476
3586
3064
2728
2759
3308
3970
3848
3433
3508
3511
3050
3183
3251
3198
3858
4533
4119
3490
3682
3505
3097
3565
4366
4393
4009
3974
3818
3615
3282
3883
4574
4849
5043
5204
4909
4554
4385
4534
4805
5414
5786
5531
5177
4974
4363
4079
4807
5602
5873
5658
5695
5609
5321
4858
4996
5976
6474
6450
5995
5585
5487
5383
5265
5514
5843
6253
5950
5687
5127
4536
4429
5009
5423
5353
5510
5552
5265
4554
4410
4497
4808
4233
4331
5045
4702
4103
3784
3676
3546
4169
4613
4542
4281
4206
3943
3795
4204
4544
4013
3837
4282
4105
3174
3304
3844
3934
3880
4311
4916
5204
4457
3321
3421
3618
4051
4340
4378
4609
4435
4134
3582
3745
4124
4012
3609
4402
4521
4130
3425
3280
3871
4096
4183
4152
4470
4318
3774
3653
3512
3623
4280
5058
5282
4536
3947
3635
3695
4152
4297
4666
4990
4960
4785
4030
3795
3644
4066
4943
5059
5044
4160
4074
4095
4412
4253
4407
5287
5011
4916
4923
4783
4859
4107
4074
4449
4863
5064
4998
4398
4019
3866
4724
4847
4933
4990
4999
4503
3953
4114
4437
4220
5100
5677
5490
4840
4593
4240
3906
3647
4306
5123
5167
4860
4258
4356
4409
3988
4609
5396
4926
4602
4912
4165
3886
3936
4052
4396
4988
5313
4716
4549
4873
4671
4368
4279
5150
5701
5074
4536
4350
4449
4331
4581
4793
5453
5695
5633
4860
4402
4403
4274
4403
5367
5960
6021
5412
4192
4530
4968
4468
4483
6009
6307
5649
5228
5077
4772
4796
5220
5949
5994
5898
5787
5034
4630
4509
4792
4770
5162
6286
6626
5944
5143
4500
4470
5003
5699
5661
5609
5529
5164
4559
3931
4225
5164
5698
6013
6394
5454
4887
4452
4753
5082
5583
5520
5629
5613
5194
4706
4711
4867
5271
5849
6241
5734
4381
4234
4571
5177
5379
5320
5338
5544
5002
4472
4023
3998
4311
4993
4911
4250
4177
4243
4071
4677
5285
6612
7477
8679
9845
10299
10782
11569
11457
11356
11878
11497
10494
8915
8081
6970
5222
4394
5035
5350
5329
4995
4806
4386
4461
4484
4596
4905
5286
5609
5121
4862
4704
4551
5275
5045
5223
6258
6117
5546
5144
5146
5333
5421
5931
5790
5565
5062
5169
5449
5260
5017
5760
5780
5615
6321
6091
5545
5339
5471
5552
6083
6229
6385
6407
6039
5170
5218
5800
5627
6229
6734
6525
6086
5472
5536
5706
5987
6238
6675
6493
6188
5481
5658
5987
5977
6179
6574
6480
6382
6445
6134
6258
6188
6522
6916
6907
7263
7178
6606
5719
6197
6923
7028
7308
6785
6796
7222
6902
6413
6021
6667
7723
7794
7713
7333
6829
6612
6892
7417
7745
7618
7310
7158
7269
6997
6483
7145
7570
7404
7293
6959
6645
6681
6139
5841
6404
6671
6984
6637
6138
5924
6098
5761
5665
6024
6726
6319
5870
5902
5987
5206
4643
5344
5467
5746
6108
5830
5169
5083
5542
5433
5553
5630
5538
5719
5622
5042
4994
5270
5637
6055
6276
5588
5412
5073
4667
4707
4892
5425
6215
6556
6464
6051
5290
4737
5202
5615
5831
5712
5582
5661
5458
5077
4703
4830
5595
5848
5856
5794
5473
4899
5316
5088
5055
5377
5963
6372
5919
5420
4390
4309
4932
5585
6137
6355
5832
5184
4977
5007
5093
5382
6120
6614
6118
5540
5164
5087
5038
5354
6053
6105
5560
5692
5450
4531
4188
5055
5869
6155
5844
5613
5267
5028
4803
5087
5604
6088
6367
5769
5366
5309
5119
4989
4913
5153
5730
6090
5977
5470
5027
5398
5205
4814
5268
5858
6029
5692
5801
5401
4708
4933
5816
6204
5738
5721
5869
5506
4894
4907
4942
5850
6218
5954
5815
4777
4429
4765
5184
5860
5937
5812
5456
4976
4603
4466
4653
4803
5219
5693
5370
4969
4540
4180
4352
4619
5239
5469
5603
5585
5209
4652
4619
4820
4925
5501
5923
5719
5250
4770
4589
4358
4831
5329
5658
5738
5603
5553
5305
5311
5151
5395
5860
5645
5699
5718
4863
4529
4308
4816
5592
5703
5899
5463
4844
4514
4663
4567
4989
5377
5597
5404
4738
4544
4545
4506
4862
4918
4854
5063
4749
4257
3708
4315
5027
5386
5554
5524
5240
4505
4098
4378
4540
4716
4608
4797
4863
4818
4256
3645
3820
4853
5142
5492
5690
4826
4124
3587
3448
3648
3563
4337
4424
3800
3898
4045
3687
4381
5661
6957
8027
9031
9759
10166
10606
10699
10882
10706
10219
9848
9113
7647
5865
4507
3558
3400
4082
4223
4492
4369
4366
3718
3087
3142
3594
4049
4165
4218
3990
3340
3044
2989
3240
4309
4662
4252
4392
4153
3610
3398
3833
4642
4664
4474
4191
3865
3897
3412
3760
4243
4198
4436
4862
4473
3748
3156
3052
3311
4059
4977
4682
4393
3803
3435
3506
3655
3979
4741
4935
4660
4215
4072
4247
3964
3791
3998
4774
5086
5024
4425
3890
3543
3729
4431
4557
4529
5463
5144
4293
4083
4395
5021
5535
5580
5746
5189
4736
4989
4843
4419
4767
5661
6280
6490
6346
5754
5266
5509
5510
5704
6247
6426
6167
5781
5589
5348
5350
5785
6473
6760
5963
5510
5322
5643
6131
5692
5552
6189
6447
6140
5443
4832
4474
4487
5088
5239
5594
5494
4811
4694
4761
4032
4110
4953
5291
5014
4598
4259
4175
4273
4199
4156
4375
4973
4804
4791
3811
3241
3576
4044
4435
4694
4685
4360
3555
3179
3429
4387
4177
3754
4539
4849
3941
3417
3123
3632
4115
4569
4478
4347
4599
4284
4045
3998
4516
4585
4955
5781
5629
4665
4089
4338
4860
4826
5111
5392
5211
4850
4406
4342
4353
4657
5337
5380
5325
5265
5199
4912
4304
4579
4907
5044
5837
5375
5010
4628
4046
4335
4948
5517
6215
6015
4983
4892
4756
4272
4331
4602
5440
5671
5615
4613
3861
3346
4040
4575
4986
5653
6064
5742
5162
4321
4048
4748
4969
4985
5285
5172
5200
4641
4239
4636
5032
5346
5520
5583
5141
4857
4791
4579
4577
4938
5617
5753
5057
4271
4416
4673
4239
4479
5543
5649
5323
5002
4930
5061
5075
5204
4889
4898
5558
5679
5188
4635
4477
4483
4498
4835
5686
5525
4675
4835
5163
4805
4658
4871
5352
5671
4976
4641
4363
4259
4509
4600
5154
5691
5294
4588
4296
4144
3835
4258
4700
5389
5446
5022
4556
4006
3790
4143
4657
5418
5312
5103
4614
4215
4769
4995
4601
4344
5007
5496
5447
4063
3431
3841
4029
4834
4896
5300
5458
4715
3977
3450
3859
4851
4885
5802
5576
5168
4722
4255
3797
3803
4027
4967
5200
4819
5105
3749
3127
3688
4195
4241
4855
4649
4187
3960
3005
2912
3144
3631
3848
4061
4700
4248
3009
2993
3185
3583
4491
4286
4157
4354
3793
3345
3426
3459
3859
4007
3751
3949
3990
3801
3656
3694
3557
3360
3747
3566
3281
3403
3189
3511
4263
5247
5945
7070
8360
9103
9614
10055
10116
10219
10075
9094
8388
7765
7000
5062
3425
3178
3236
3362
3493
3310
3107
2492
2476
2545
2572
3239
3403
3374
3630
3358
3004
3159
3349
3380
3658
3107
3335
3358
2891
2659
3001
3257
3892
4156
3742
3262
3281
3120
2854
3077
3575
3830
3943
4177
3726
3050
3121
3279
3714
3988
4131
3850
3744
3433
2027
2709
3470
3966
4375
3929
3938
3353
3215
3304
3307
4015
4386
4430
3886
3544
3677
3679
4103
4081
4175
4855
4613
4445
4135
3402
3477
3849
4641
4824
4948
5015
4820
4717
4586
4330
4063
4807
5518
5396
4839
4813
4579
4234
4650
4946
5726
5773
5064
4657
4639
4874
5188
5617
5721
5936
5516
5043
5043
4919
4858
4924
5139
5130
5177
4658
4783
4298
4620
5212
4490
4904
5275
4967
4316
3678
3167
3497
3785
4070
4083
3919
3850
3423
2638
2890
3744
3828
3222
3501
4089
3380
2729
2793
3056
3206
3295
3620
3330
3108
2936
2516
2877
3265
2955
3208
3578
3722
3486
2790
2147
2212
2800
3466
4011
3902
3554
2656
2191
2369
2839
3163
3826
4001
3811
2958
2589
2258
2916
3541
3680
3719
3636
3231
3016
2616
2022
2343
2624
3684
4296
3649
3009
2712
2320
2751
2946
3238
3188
3232
3488
3073
2563
2570
2649
3090
3376
3228
3216
2723
1975
1994
2587
3287
2877
3050
3293
3258
2737
2218
2614
2471
2494
2844
2741
2382
2322
2225
1958
1843
2297
2837
3627
3540
2703
2172
1673
1445
1753
2580
3172
3262
2705
2389
1830
1768
2063
2292
2468
2859
3187
2787
1771
1729
2440
2006
2084
2625
2394
2333
2378
1992
1626
1702
2238
2817
2796
2801
2569
2270
1604
1739
1676
1769
2564
2967
2514
1830
1522
1174
1391
2188
2817
2818
2621
1783
866
1437
2205
2577
2540
2853
3588
2556
1634
1896
1565
1990
2280
2412
2452
2823
2391
2190
2260
1917
2310
2672
3239
3276
2970
2423
1869
1749
2075
2555
3280
2940
2593
2631
2716
2036
1484
1871
2621
2641
2450
2202
1885
1423
1631
2276
2104
2413
2140
1947
1993
1679
1385
1644
1847
1838
2366
2871
2494
1564
847
1346
1750
1891
2110
1999
1821
1327
857
1196
1478
1572
2022
2217
1602
1350
825
311
492
1112
1832
1930
1767
1136
876
511
700
915
1453
2533
3472
4461
4626
4627
5720
6978
7834
8608
8583
8591
7774
6336
4945
4462
3280
2323
2019
2020
2271
1530
954
718
1129
1185
889
1457
1766
1006
859
1054
755
1125
1338
1715
1756
1717
1479
1145
708
562
1090
1382
1891
2400
2170
1517
1095
1339
1688
1655
1999
2345
2119
1902
1462
928
1291
1625
2143
2747
2070
1765
1602
1262
957
1725
2143
2444
2769
2526
2219
1335
1406
1451
1906
2736
3107
3207
3141
2794
2001
1619
1863
2464
2797
2887
2947
2415
2243
1642
2017
2862
2977
2726
2685
2672
2551
1920
2017
2779
3312
3096
3006
3467
3567
3024
2836
3096
3611
3750
4000
3832
3637
3025
2630
3165
3550
3702
4035
3838
3569
3687
3092
2789
3078
2973
3457
3759
3936
3426
2494
2486
2805
3011
3227
3280
3591
3086
2188
2119
2117
2106
2455
2774
3038
3304
2613
1659
1666
2012
2070
2279
2190
1973
1956
1126
591
777
1544
1619
1667
1888
1571
1025
1080
1066
828
1349
1631
1535
1441
1509
1341
395
623
1153
1435
1505
1932
1530
1129
1096
874
835
1564
1889
1767
1708
1333
869
587
354
844
1846
2007
2077
1293
896
949
505
697
1258
1958
1753
2025
1402
682
1097
1303
1109
1456
1955
2132
1638
1342
1051
798
783
1018
1561
2082
2014
2232
1557
816
951
1421
1680
1799
1905
1760
1237
623
1027
617
734
2255
2615
2181
1513
1220
822
767
1331
2170
2175
1971
1313
807
1099
1258
1081
1514
2119
1932
1874
1577
1476
1290
1186
1703
1702
1854
1808
1928
1493
1432
1004
668
1320
1826
1939
2082
2086
1288
874
1407
1413
1862
2015
2178
1854
829
812
1090
1384
1799
2038
1951
2160
2007
1610
1580
1320
1313
1808
2200
2146
1675
1354
1098
1095
1653
1837
2312
2402
2033
1963
1783
1881
1747
1883
2428
2545
2397
2111
1515
1224
1109
1353
1464
1790
1998
1852
1618
1323
1099
915
1530
2167
2317
2112
1645
965
339
545
1269
1363
1312
1915
1774
1356
762
560
825
976
983
1912
2009
1260
1100
571
458
1169
1018
1244
1512
1801
1300
876
402
339
757
1118
1321
1208
659
134
-174
-196
-41
244
713
1654
2378
2786
3038
4065
5336
6362
7512
7610
7155
6773
5878
4348
3898
4057
3342
2361
1329
356
262
-396
-100
644
895
1029
1577
978
82
-3
-39
17
673
1083
1180
1362
770
405
140
267
472
1009
1326
618
590
1056
308
-249
491
621
1326
1864
1465
844
828
572
486
918
1243
1402
1902
1374
1005
847
301
209
894
878
1059
2177
1917
948
146
309
605
1273
1807
2006
1545
927
636
422
757
1117
1700
1948
1354
953
521
658
1455
1578
2151
2558
2508
2094
1224
1095
1216
1262
1843
2493
2745
2927
2807
1883
1406
1151
1601
2479
3245
2909
2790
2781
2463
2010
1883
2727
3107
2826
2162
1891
2067
2003
2123
2475
2833
2961
2702
2292
2353
1928
2011
2022
2138
2353
2455
2273
1745
1092
995
1175
1491
1849
2270
2133
1547
1351
759
266
297
611
1220
1523
1277
788
242
-284
337
943
1194
1378
1244
557
57
-101
-253
-161
507
1316
1392
1115
644
537
189
-138
191
1014
1407
1383
744
-586
-724
-525
183
735
1367
1710
949
367
15
-589
-724
56
1018
1336
844
241
179
-21
118
489
1029
1316
904
672
42
-427
-344
-117
190
820
962
932
264
-112
-207
75
354
713
859
487
190
615
268
-281
-77
80
607
863
533
373
-302
-884
-235
868
1105
427
783
1150
387
-149
-3
212
512
990
957
757
153
245
578
30
105
668
598
572
749
749
326
-21
356
552
813
570
672
596
137
-677
-492
21
683
824
673
644
259
-128
110
69
213
1179
1193
930
413
-108
-90
-56
610
984
630
738
611
107
444
443
45
625
1047
1409
867
117
-241
-354
-178
768
1311
1673
1267
820
975
853
74
67
442
1120
793
398
310
-627
-741
-377
336
788
448
391
429
-370
-407
-529
-376
-138
232
687
494
-72
-615
-1144
-629
310
882
1186
956
520
-213
-217
-669
-570
-23
383
347
-112
-794
-1079
-554
444
734
158
-13
-208
-790
-1325
-1669
-1665
-441
-98
268
928
730
1106
2468
3533
4426
5208
5957
6412
6212
5432
4531
4255
3610
3044
2220
1261
741
-238
-900
-1434
-1462
-516
113
82
231
93
-725
-1049
-801
-700
-739
-97
411
211
7
-244
-391
-442
-9
477
545
992
123
4
300
-55
-343
241
1158
1507
768
223
-81
-88
-430
-201
535
1293
1388
1105
339
-271
-97
123
817
1285
1134
1001
1291
378
-350
151
1036
1112
853
1387
1528
797
515
734
732
1295
1525
1476
1704
1303
679
744
853
1436
2196
2352
2186
1879
1236
855
882
1654
2323
2383
2409
2031
1289
1538
1630
1290
1675
2578
3494
3436
2684
1800
1754
2233
2590
2318
2078
2254
2470
2296
2176
2124
2224
2730
2831
3032
2668
2527
1774
1808
1541
1625
2055
1766
1887
2598
2206
1369
1092
1215
1718
1616
1276
1559
1425
1014
452
555
1142
718
936
809
594
623
295
-219
389
637
836
974
1076
635
78
-232
-89
159
710
1301
1218
762
400
105
253
95
108
738
1278
790
426
116
-35
83
523
534
584
445
303
-77
-555
-27
741
447
1065
1390
1022
782
179
-506
-614
-20
180
412
729
558
184
19
-684
-429
258
1110
1376
997
529
-258
-319
-16
17
414
912
667
557
375
-591
-546
471
699
1179
1044
183
-226
-611
-529
-415
-467
-66
875
827
175
5
90
244
6
158
1049
1265
675
66
-238
-366
-370
-247
792
1119
1063
751
-166
-462
-170
379
865
543
439
885
540
-298
-616
-347
85
834
1029
391
-177
-62
-87
-378
242
522
1022
1179
897
311
-359
-833
-359
10
776
895
654
-84
-459
-5
-248
40
-76
211
858
510
-128
-228
-151
-66
227
1073
957
548
69
34
351
439
353
426
988
1314
752
195
-37
-138
88
539
989
777
609
-87
14
-74
-167
-219
383
501
324
64
-645
-850
-1209
-681
-47
614
650
39
-519
-804
-963
-861
-248
638
806
8
-394
-439
-469
-776
-545
-363
-112
172
-77
-518
-645
-560
-157
78
-183
-219
-359
-521
-838
-1219
-1674
-1957
-706
78
434
1202
1609
1655
1836
3184
5120
6613
7600
7464
6360
5612
4851
4364
4163
3698
3348
1631
154
-858
-1122
-950
-1157
-601
52
-67
-319
-569
-1249
-1447
-912
-484
-45
5
235
-81
-679
-958
-1065
-948
-570
-292
319
-79
-269
-434
-1319
-1335
-473
-23
389
328
155
-267
-916
-568
-513
146
295
-114
195
-103
-919
-864
-273
-50
80
134
791
540
96
-297
-599
-367
481
1196
1143
530
186
-156
-56
-131
72
438
1021
782
553
87
-306
-95
72
664
1427
1594
579
781
685
-269
268
936
1161
1733
1696
1164
854
854
589
967
1573
2009
2394
2090
1403
1400
1628
1523
1917
2839
2694
2365
1654
1354
1235
1274
1608
1647
1923
2437
2321
1677
1271
1262
1381
1587
1362
1800
1772
1680
1048
262
264
720
1657
1778
1244
1179
863
472
615
676
397
893
887
420
-146
-736
-547
-24
189
518
1026
738
734
420
-332
-295
-46
-79
638
799
202
288
-59
-413
-666
-321
40
893
1233
-18
-10
-301
-492
-334
-10
486
950
266
-709
-806
-762
-37
517
715
418
437
267
-30
-568
-562
-176
491
736
1098
558
-243
-239
-815
-478
-65
293
700
576
-147
-713
-518
-60
-59
292
868
797
354
-31
-5
-297
-409
11
471
1444
1194
339
14
-394
-547
89
474
529
550
421
849
818
180
366
1142
1717
1900
1909
1060
-62
282
478
842
1136
1582
1620
667
254
320
318
611
907
849
1314
1360
694
481
592
146
370
1173
840
941
604
-172
412
360
846
1216
1279
1189
1097
394
-399
-289
55
324
542
866
1005
776
295
-470
-508
-259
534
1275
1569
1474
1125
841
121
-67
573
1326
1496
930
402
105
19
138
625
853
826
937
1328
1089
480
291
316
972
1364
1482
1143
249
529
1123
1273
903
1027
1060
959
1516
358
48
429
498
875
1287
1398
1016
591
-28
93
76
393
872
955
636
351
-255
-278
-595
89
872
720
875
1094
762
-166
-379
-198
-422
130
669
753
564
-78
-157
-271
-140
415
686
801
535
112
-124
-940
-782
-750
-169
672
985
217
-594
-758
-772
-796
-256
797
2064
2112
2037
2851
3693
4804
6182
7311
8144
7690
7023
6202
4950
4025
3349
3066
2070
698
-58
-118
-599
-1094
-930
-628
-32
392
-210
-471
-604
-765
-666
-266
274
184
-130
177
167
-341
-878
-940
-427
766
656
305
120
-278
-555
-67
-182
-103
564
1033
50
-438
-588
-402
36
599
438
482
70
159
193
-371
-557
421
829
674
594
26
-49
-389
-390
-18
382
351
469
424
715
355
-192
-382
-183
411
950
1244
782
212
24
-115
7
189
844
1165
769
518
443
236
218
666
1611
1291
1262
992
690
943
792
1101
1678
1709
1423
1709
2103
1040
554
1006
1707
2267
2360
2108
1918
1453
1103
1003
834
1493
1808
1595
2281
2072
1092
988
1059
704
776
1037
1077
1033
283
-301
84
111
-108
413
786
428
-549
-479
-326
-479
-620
-309
229
431
-252
-846
-1342
-1335
-920
-625
-330
95
-304
-723
-949
-1627
-1443
-625
-71
154
-255
-691
-918
-1563
-1797
-1241
-214
-356
-802
-468
-906
-1645
-1539
-1111
-1389
-509
-447
-763
-1055
-812
-1599
-1402
-1138
-990
-443
-396
-741
-1319
-1701
-1763
-1671
-1074
-326
-539
-658
-875
-1167
-1436
-1517
-1284
-1105
-440
111
-362
-1223
-1824
-1781
-1712
-1361
-851
-285
-529
-903
-771
-1594
-2392
-1305
-321
-359
-285
-390
-1175
-1930
-1898
-1232
-1091
-380
-463
-413
-646
-1728
-1862
-1731
-1158
263
186
-767
-1331
-1543
-1425
-1329
-1067
-502
-377
-372
-686
-1164
-1565
-1309
-1143
-864
-1201
-705
-560
-800
-1272
-1961
-1829
-1572
-756
-56
-203
-793
-1140
-1728
-1153
-863
-778
-526
-639
-515
-1150
-1667
-1349
-1163
-604
-365
-499
-132
-568
-1090
-1524
-1162
-1353
-1642
-849
96
-85
-765
-1182
-1229
-1438
-1241
-925
-894
-648
-420
-778
-1704
-1864
-903
-1131
-547
65
-305
-588
-946
-1411
-1556
-1028
-635
-701
-1031
-1109
-1960
-1758
-1206
-358
-382
-418
-162
-370
-673
-843
-1494
-1468
-811
-354
-307
-361
-778
-1222
-1413
-1127
-803
-795
-738
-463
-604
-798
-1465
-1717
-1429
-1506
-840
-184
-472
-1192
-1608
-1758
-1583
-2198
-2174
-1239
-603
-934
-1234
-1726
-1874
-1488
-1592
-1309
-1265
-1714
-1161
-1371
-2553
-2320
-1314
-955
-924
-1286
-1775
-1674
-1505
-1954
-2452
-1784
-1313
-1415
-1885
-2435
-2637
-2785
-3147
-2987
-2396
-2515
-2011
-1655
-1494
-1316
-643
489
1534
2782
4296
5284
5531
5571
4753
4168
3759
3794
3544
2363
721
-1412
-2492
-2598
-2654
-2405
-997
-432
-1316
-2181
-2590
-2856
-2491
-1613
-1614
-1927
-1998
-1711
-2063
-2470
-2591
-2179
-1846
-1788
-1509
-1449
-1705
-2225
-2351
-1794
-1622
-1081
-809
-898
-1545
-2219
-2177
-2677
-2084
-1334
-746
-1279
-1423
-1459
-1701
-1642
-1396
-1062
-1347
-953
-947
-1144
-1032
-1513
-2211
-1675
-571
-574
-797
-817
-1136
-1378
-1739
-1129
-1010
-631
-460
-737
-474
-841
-1402
-1076
-634
-593
-405
-294
-713
-731
-623
-564
-495
-292
422
75
308
61
-465
-947
-158
-140
161
654
843
286
-352
-503
-416
-363
243
753
805
803
748
129
-3
-17
327
527
778
948
537
-33
340
23
-112
273
589
912
522
102
-510
-661
-686
-744
-163
-260
-330
-338
-740
-1443
-1629
-1521
-1330
-690
-716
-969
-1289
-1723
-1401
-1835
-1193
-400
-802
-1129
-1148
-1794
-2312
-2250
-994
-898
-1168
-452
-730
-1489
-1907
-2328
-2171
-1271
-463
-334
-875
-1647
-1990
-1957
-1617
-1402
-1070
-1048
-1061
-1048
-1467
-1871
-1798
-1777
-1263
-742
-905
-766
-1231
-2000
-2485
-1774
-1099
-1669
-598
-295
-997
-1386
-1277
-1738
-1319
-925
-906
-870
-721
-1014
-1532
-1554
-1335
-1386
-1015
-1037
-1328
-1366
-1518
-2037
-1965
-2034
-1774
-1421
-273
-137
-672
-1300
-1556
-1364
-1561
-1108
-359
-439
-1154
-1143
-1054
-1735
-1397
-931
-775
-427
-986
-1543
-1656
-1712
-1587
-1329
-1074
-758
-935
-1380
-2174
-2067
-1621
-1284
-1259
-906
-79
-257
-1189
-1239
-1461
-1368
-1535
-709
-402
-851
-1011
-1901
-2233
-1717
-1346
-1051
-640
-398
-1258
-1533
-1658
-2005
-2090
-1726
-1299
-472
-554
-1253
-1728
-2044
-2151
-1639
-816
-536
-487
-741
-1213
-1859
-1848
-1700
-1345
-1039
-793
-760
-690
-788
-1553
-1882
-1424
-928
-736
-162
-439
-902
-1528
-1545
-1658
-519
-97
110
-536
-998
-1309
-1607
-1246
-953
-653
-669
-512
-467
-1328
-1375
-1790
-1734
-1211
-1004
-955
-1055
-1299
-1770
-2302
-2002
-1458
-1363
-914
-663
-1421
-1937
-2373
-2430
-1875
-991
-812
-1016
-885
-1360
-1975
-1947
-2018
-1767
-1270
-604
-919
-1480
-1838
-1757
-1755
-2228
-2035
-1605
-1228
-1327
-2217
-2411
-2297
-2539
-2358
-1289
-945
-1082
-450
-12
-93
794
2342
4291
5598
5434
5485
4651
3715
3177
3175
3042
2384
1212
-158
-1163
-2007
-2230
-2010
-1898
-1812
-1394
-1944
-2100
-2237
-2303
-2046
-2027
-1789
-1400
-1362
-1263
-1555
-2190
-2097
-2110
-1395
-1027
-1237
-1140
-992
-1606
-2172
-2467
-2319
-1695
-956
-578
-811
-1239
-2020
-2113
-1773
-1566
-1364
-489
-664
-928
-1386
-1596
-1367
-1525
-1181
-791
-812
-705
-1062
-1354
-1517
-1069
-636
-688
120
92
-326
-679
-926
-1398
-1223
-657
58
426
-6
-702
-1039
-994
-632
-608
42
557
37
-478
-638
-564
-668
-308
625
806
694
607
537
26
-19
-85
279
561
1388
1601
800
165
195
620
1037
790
1044
1550
1425
1077
171
312
488
755
1161
1274
978
1379
1246
-69
-291
65
464
836
631
408
-104
-206
-653
-1056
-209
419
141
12
-139
-763
-1128
-1137
-816
-285
-123
-153
-978
-1461
-1620
-1423
-1316
-1052
-430
-17
-205
-816
-1574
-1609
-2231
-1358
-1304
-1367
-137
-206
-630
-1185
-1552
-1283
-1045
-477
-635
-644
-894
-1601
-1774
-1426
-763
-344
-240
-337
-739
-1108
-1204
-1358
-1344
-1358
-769
-666
-897
-1363
-1832
-954
-887
-987
-627
-502
-287
-815
-1203
-1312
-1527
-1622
-616
28
-65
-980
-1358
-1306
-1549
-1623
-800
-428
-60
-191
-648
-1320
-1921
-1483
-1166
-805
-225
-502
-622
-391
-1297
-1333
-977
-754
-239
-164
-415
-705
-1484
-1959
-1657
-1008
-503
-221
250
-809
-1577
-1258
-1589
-1633
-968
-481
-578
-515
-680
-1689
-1726
-1534
-1332
-1034
-760
-458
-629
-1175
-1590
-1611
-1112
-895
-861
-389
-85
-508
-1283
-1655
-1283
-1032
-637
-129
79
-542
-879
-1441
-1684
-843
-95
-191
-127
154
-31
-1054
-773
-855
-563
309
331
728
-115
-1210
-1074
-682
-150
253
570
-125
-314
-227
-1103
-1187
-1128
-771
-303
340
539
-305
-797
-1088
-1223
-814
-537
-470
-1079
-666
-823
-1152
-1806
-1567
-1019
-454
-463
-728
-764
-887
-1739
-1698
-684
-433
-445
69
-567
-1058
-1449
-1835
-1532
-982
-661
26
-375
-864
-772
-1323
-1868
-1444
-1170
-1103
-716
-1340
-1742
-928
-703
216
1458
2309
3515
4276
5243
5068
5011
4568
4451
4206
3588
3448
2285
486
-1340
-2112
-2156
-1913
-1743
-1072
-1193
-1871
-2190
-2036
-1874
-1648
-983
-1048
-1160
-1238
-858
-1271
-1938
-1843
-1510
-612
-314
-256
-906
-1623
-1535
-1332
-1328
-965
-288
-241
-839
-1281
-2193
-2578
-1692
-995
-40
259
-86
-616
-1165
-1517
-1305
-653
-11
57
-2
-608
-987
-997
-1191
-779
-242
-392
-317
-63
-24
-544
-999
-1179
-1072
-319
177
-134
-468
-865
-906
-607
-418
265
584
637
314
361
-58
45
186
99
526
952
887
502
205
-52
223
481
895
1636
1797
1697
1033
237
86
702
1492
1491
1439
1099
864
922
871
838
973
1490
1729
1771
1456
696
497
245
676
1021
1355
1264
1503
1423
482
206
276
511
219
1014
763
22
-412
-688
-678
-368
-87
243
158
-219
-188
-693
-959
-850
-546
72
169
-324
-480
-955
-796
-605
-981
-716
61
438
309
-32
-507
-1295
-1392
-1173
-364
70
-426
-455
-530
-1057
-1178
-991
-570
-514
-445
-18
-337
-1175
-1658
-1441
-587
210
213
-43
-614
-597
-1047
-1255
-865
-568
-216
-401
-429
-748
-973
-1069
-986
-447
-288
23
154
-306
-794
-891
-827
-572
-63
-342
-243
-134
-641
-936
-938
-421
-383
-305
220
107
-298
-1112
-1417
-1115
-726
-180
131
-204
-632
-983
-1013
-422
-434
-824
-621
-205
-478
-915
-1074
-1356
-1312
-878
-702
-405
-445
-317
-490
-1880
-1637
-1242
-807
-284
-452
-532
-889
-1287
-1335
-1170
-976
-844
-1063
-524
-1127
-1045
-882
-875
-733
-631
-141
-140
-551
-630
-845
-1364
-1373
-847
-557
-560
-125
-647
-1049
-1105
-1088
-1489
-1065
-189
46
-227
-661
-865
-1210
-1007
-818
-523
-508
-912
-944
-648
-1023
-1197
-856
-223
10
-178
-241
-756
-1532
-1761
-1286
-1045
-553
61
-273
-1249
-1593
-1343
-1649
-1506
-1021
-620
-647
-1131
-1334
-1546
-1946
-2141
-1275
-582
-818
-850
-1201
-1811
-2076
-2214
-1477
-984
-1001
-857
-657
-1358
-1999
-1924
-1873
-1370
-648
-1004
-1017
-952
-1735
-2035
-2405
-2207
-1293
-970
-1422
-1730
-1877
-1920
-1292
-338
887
2756
4169
4689
4775
4922
5092
4508
3579
3366
3945
3742
1840
-472
-1550
-2033
-2465
-1939
-1585
-1301
-1208
-2243
-2947
-2620
-2184
-2031
-1346
-569
-439
-1186
-2395
-2228
-2222
-2533
-1780
-1338
-1102
-915
-1776
-2318
-1985
-1696
-1447
-1092
-876
-1066
-1130
-1615
-1882
-1819
-1577
-1390
-704
-657
-899
-1352
-1843
-1867
-1593
-1184
-1082
-710
-859
-1325
-1400
-1949
-2217
-1224
-572
-687
-574
-678
-1196
-1205
-1178
-1017
-711
-153
340
-418
-1092
-1489
-1836
-1726
-990
141
413
-47
-285
-730
-1061
-1029
-1019
-535
177
896
536
141
82
-241
-381
-698
54
741
765
702
111
-212
-214
186
745
1382
839
695
51
-339
-327
-125
580
999
976
944
1026
143
91
-161
-301
61
506
282
-108
-83
-315
-606
-921
-448
10
-44
-255
-344
-1005
-1434
-1602
-1721
-785
-459
-593
-571
-848
-1089
-1685
-1991
-1741
-1286
-954
-647
-1038
-1683
-2363
-2459
-1568
-824
-541
-639
-998
-1500
-2013
-1808
-1539
-1269
-1161
-842
-750
-689
-1380
-2566
-2215
-1505
-1134
-502
-804
-1167
-1708
-1993
-2225
-2024
-1190
-1233
-669
-881
-1469
-2048
-1830
-1700
-1440
-1082
-458
-216
-814
-1449
-1970
-2059
-1405
-1307
-1563
-1222
-668
-722
-1846
-2397
-1635
-1299
-397
-413
-799
-779
-1730
-2322
-2150
-1619
-917
-453
-419
-780
-1094
-1600
-1820
-1937
-1017
-284
-456
-291
-293
-1090
-1547
-1472
-1150
-889
-845
-575
-245
-708
-1042
-1462
-1769
-1481
-995
-669
-810
-881
-1436
-1807
-1572
-1355
-939
-685
-538
-518
-949
-1324
-1483
-1430
-1526
-1202
-784
-465
-1029
-2144
-2321
-1756
-1640
-1469
-1033
-689
-914
-1405
-2019
-2130
-1866
-1446
-743
-810
-1169
-1099
-1554
-2123
-1678
-1287
-1364
-467
-621
-1023
-1522
-1910
-1882
-1725
-1648
-1621
-1277
-465
-934
-1425
-1233
-1376
-1001
-727
-321
-494
-1236
-1604
-1070
-1009
-1605
-1397
-843
-494
-764
-1338
-1730
-1360
-1219
-1032
-896
-340
-429
-1129
-1552
-1286
-1504
-1865
-1227
-1350
-1309
-1342
-1147
-1184
-1673
-1975
-1907
-1478
-1135
-386
-453
-1351
-2259
-2585
-1790
-751
-315
-764
-1535
-1794
-2083
-1993
-2012
-1760
-1159
-965
-994
-1635
-1984
-1897
-1811
-2015
-1891
-900
-931
-1691
-2478
-2795
-3020
-2911
-2244
-1180
-935
-600
-357
14
122
1410
2612
4167
6102
6769
5956
4844
3369
2960
2985
2202
1356
293
-813
-2215
-3181
-2655
-2476
-2330
-2053
-1583
-1317
-1675
-2064
-2707
-2569
-2040
-2086
-1758
-1177
-1372
-2341
-2820
-2543
-2093
-2165
-2094
-1783
-1784
-1572
-1932
-2750
-2576
-2016
-1527
-1302
-1253
-1403
-2185
-2901
-2412
-1723
-1059
-876
-1270
-1217
-1094
-1672
-1813
-1759
-1622
-1141
-896
-803
-1002
-1652
-2264
-2442
-2449
-2308
-1254
-362
-754
-1142
-1160
-1877
-1998
-1167
-477
-481
-847
-761
-875
-1231
-1090
-915
-848
-372
89
14
-739
-820
-1053
-1372
-1030
-115
196
275
160
246
-86
-678
-369
99
495
996
1009
484
-27
-111
-283
-25
605
1311
1832
1609
939
715
414
353
817
1568
2200
1648
657
666
537
-70
146
843
1353
1305
915
266
129
41
-42
703
986
858
236
-25
-880
-1209
-846
100
484
457
229
188
70
-392
-1175
-992
-286
402
459
227
-283
-572
-1089
-910
-296
34
-4
3
-112
-527
-688
-438
-558
-669
-188
436
515
-263
-512
-954
-1021
-335
-218
174
484
274
-250
-887
-1152
-200
-368
-11
342
58
-367
-553
-1239
-1326
-377
756
1018
245
-276
-518
-1365
-1378
-449
-25
-110
275
108
-159
-632
-788
-872
-81
-23
-219
-64
-240
-783
-1122
-1038
-253
517
88
200
231
-290
-594
-889
-601
-564
-295
212
289
-242
-1286
-1311
-830
-203
-274
-410
54
-389
-855
-1559
-1041
-531
-439
-570
-453
-125
134
-465
-1526
-1121
-852
-70
255
182
-216
-648
-1098
-1320
-1187
-755
-387
-273
68
-469
-1234
-1205
-924
-1160
-847
215
35
-441
-986
-958
-891
-893
-253
-14
-824
-605
-624
-1120
-1685
-1458
-886
-418
-299
-544
-734
-907
-998
-1203
-1221
-797
-245
-269
-164
-399
-808
-505
-807
-1331
-486
-300
-373
-593
-1194
-1925
-1838
-1096
-697
-182
-241
111
120
-1173
-1741
-1259
-368
-517
-166
425
-436
-663
-978
-1155
-747
-863
-480
-250
-331
-674
-1085
-1177
-1238
-1147
-564
-498
-637
-938
-1686
-2268
-1731
-1563
-1163
-473
-72
-889
-1746
-1659
-1676
-1657
-1339
-782
-1009
-953
-808
-1320
-1861
-2050
-2034
-1278
-1072
-1183
-1192
-1598
-1981
-1816
-1433
-1296
-1143
-874
-748
-1031
-1528
-2857
-2337
-1359
-1720
-2053
-1751
-1797
-2251
-1517
-1095
-671
579
1779
2924
3868
4240
4412
4872
4988
4863
4817
5199
4015
2180
1137
-341
-1688
-2016
-1731
-1253
-804
-990
-1918
-2632
-2543
-2083
-1883
-1604
-1219
-1435
-2047
-2398
-2254
-2183
-1921
-1287
-899
-954
-1529
-2091
-2502
-2851
-1663
-1198
-1003
-480
-911
-1620
-2225
-2187
-1967
-1784
-1444
-1050
-790
-1309
-2011
-2134
-1567
-1320
-1476
-741
-889
-825
-1401
-1755
-2058
-2047
-1547
-1175
-819
-42
-597
-1397
-1787
-1683
-1629
-1408
-1070
-848
-896
-705
-1092
-1417
-1090
-1260
-911
-372
-424
-750
-990
-1565
-1654
-1109
-224
-73
-435
-644
-664
-1097
-1223
-1132
-639
151
280
815
223
-880
-958
-364
66
574
1038
610
326
-69
-355
-16
-237
42
600
692
530
-251
-192
-393
-154
618
617
1220
956
197
-123
-327
-528
-580
-192
188
-310
-734
-813
-1137
-1014
-1109
-1332
-1037
-617
-797
-568
-1573
-2475
-2013
-1912
-1333
-608
-479
-926
-1398
-1846
-1867
-1928
-1549
-1373
-1210
-1086
-1399
-1836
-2075
-1497
-1595
-1370
-1061
-1050
-1051
-1057
-1683
-1927
-2297
-2057
-1255
-860
-783
-1094
-1666
-1807
-2039
-2087
-1656
-978
-556
-1127
-1453
-1792
-2275
-2067
-1835
-1303
-806
-801
-1188
-1974
-2355
-1844
-1649
-1430
-1307
-941
-1266
-1546
-1572
-1779
-1816
-1421
-1008
-480
-387
-1254
-1885
-1993
-2376
-2108
-1453
-1096
-705
-550
-1419
-2007
-2305
-2336
-1530
-882
-939
-831
-959
-1718
-2164
-2228
-1947
-1766
-1035
-968
-1371
-2148
-2267
-1982
-2117
-1685
-1099
-1199
-1264
-1768
-1802
-1859
-1787
-2180
-1180
-637
-651
-1122
-1929
-1803
-1583
-1722
-2135
-1432
-941
-1097
-1314
-1642
-2195
-2186
-1839
-1380
-805
-1017
-1248
-1691
-2499
-2211
-2152
-1814
-1288
-686
-457
-1243
-1499
-1376
-1673
-1473
-1208
-1458
-785
-626
-1750
-2022
-1962
-1791
-1543
-880
-670
-946
-1584
-2280
-1987
-1770
-2010
-1484
-639
-1341
-1903
-1587
-1639
-1837
-1739
-1644
-1062
-835
-894
-1310
-1965
-1913
-1783
-1510
-1578
-1440
-1442
-1753
-2204
-2317
-2217
-1280
-851
-944
-1109
-1309
-1635
-2238
-2156
-1344
-1068
-1417
-787
-378
-1053
-2010
-2072
-2208
-1950
-1050
-340
-734
-733
-1179
-1903
-2077
-1898
-1020
-696
-1033
-984
-1152
-1412
-2045
-2079
-1646
-1276
-1722
-1542
-1607
-2186
-2233
-2699
-2630
-1287
-775
-426
-616
-1689
-2698
-2826
-2491
-2149
-1971
-1237
-941
-1513
-2328
-2668
-2480
-2054
-1839
-1320
-1206
-1342
-1894
-2301
-2507
-2181
-2123
-1692
-1303
-1426
-2237
-2487
-2804
-2901
-2823
-2403
-1886
-1490
-1413
-1152
-894
-53
1161
1899
3479
4856
5502
5066
4528
3284
2755
3696
2841
2146
1324
-151
-1794
-2510
-3032
-2702
-2279
-1720
-1458
-1611
-2475
-2759
-2707
-2939
-2145
-1854
-1702
-1873
-1685
-1942
-2310
-2391
-2484
-2199
-1488
-1634
-1615
-1811
-2078
-2379
-2603
-2493
-1776
-1221
-1084
-975
-1688
-2167
-2188
-1717
-1390
-1326
-1401
-1654
-2182
-2265
-1989
-1952
-1739
-1293
-1006
-1528
-1924
-2198
-2238
-2182
-1938
-1769
-1351
-1054
-1488
-1540
-1929
-1943
-1805
-1990
-1656
-1025
-571
-607
-956
-1621
-1833
-1869
-940
-445
-305
-334
-1431
-1862
-1792
-1352
-956
-720
-536
-436
-568
-647
-694
-1002
-457
349
-185
-226
77
213
-965
-1081
-759
-243
207
561
599
62
-184
-725
-512
-137
223
353
124
289
110
-557
-358
-307
-244
283
600
14
-430
-220
-623
-1435
-533
97
-239
-122
-449
-884
-1159
-1439
-1555
-1047
-620
-447
-329
-1227
-2081
-2465
-2398
-1849
-935
-511
-543
-946
-1787
-2388
-2230
-1598
-1254
-418
-1319
-1365
-1571
-1916
-1704
-1479
-1804
-1648
-1023
-483
-619
-1590
-2116
-2013
-1460
-1553
-1340
-832
-849
-1507
-1771
-2014
-1766
-1904
-1100
-1001
-1173
-1817
-2166
-2173
-2115
-2201
-1762
-1299
-764
-575
-942
-1595
-2113
-1784
-1587
-1273
-944
-970
-1168
-1333
-2116
-2387
-1769
-1100
-1194
-1301
-826
-1604
-2138
-1844
-1420
-1438
-1250
-441
-1234
-1529
-1914
-2504
-2089
-1027
-1066
-1468
-1240
-1378
-1791
-2150
-1775
-1954
-1731
-1339
-997
-932
-1386
-1555
-1791
-1758
-1271
-1139
-1055
-1067
-1177
-1801
-2550
-2776
-2046
-1550
-1739
-1415
-1238
-1379
-1483
-1750
-2115
-1954
-1268
-1295
-1570
-1508
-1680
-2234
-1967
-1855
-1545
-1313
-1413
-1748
-1351
-1680
-2553
-2243
-2188
-1531
-1146
-704
-892
-1727
-2197
-2457
-2253
-2154
-1924
-1003
-1189
-1045
-1762
-2392
-2435
-2004
-1369
-1227
-852
-1234
-1956
-2284
-2055
-2167
-2037
-1330
-1007
-1514
-1955
-1905
-2085
-2339
-2015
-1133
-965
-662
-1220
-2097
-2277
-1780
-1380
-1453
-1125
-839
-1564
-1895
-1545
-1758
-1756
-1475
-1134
-865
-1202
-1782
-1814
-1967
-2576
-2582
-1790
-832
-481
-1128
-2051
-2210
-2812
-2670
-1765
-1107
-906
-1489
-1943
-2026
-2345
-2191
-2461
-2062
-1678
-1137
-1308
-2592
-2753
-2504
-2100
-2171
-1845
-1337
-1653
-1599
-2354
-2552
-2381
-2213
-2576
-1927
-1793
-2109
-2468
-2540
-2768
-3284
-2823
-2149
-1394
-1431
-1408
-1418
-702
595
1931
3158
4135
4805
4733
4033
3326
2637
1926
1571
1795
1500
-493
-1670
-2583
-3178
-3216
-2867
-2477
-1830
-1405
-2131
-2347
-2181
-2424
-2748
-2262
-1340
-1355
-1351
-1684
-2390
-2258
-1814
-1597
-818
-1021
-1359
-1526
-1870
-1961
-2121
-1647
-1014
-969
-676
-834
-1621
-2427
-2131
-1050
-953
-830
-590
-861
-1199
-1318
-1694
-1667
-1113
-711
-789
-402
-892
-1308
-1474
-1405
-1322
-768
-425
-635
-856
-669
-957
-1450
-1250
-598
-484
-410
452
266
167
-1157
-1691
-1317
-871
-45
291
-619
-464
-482
-812
-881
-249
763
365
307
773
532
-205
-894
-84
581
1176
1376
726
528
71
-203
-238
-115
992
1459
1671
1725
460
49
345
379
460
1058
1160
661
1334
385
-308
-209
-178
391
1193
1409
1009
-412
-523
-387
-264
-124
327
374
344
-124
-651
-841
-686
-574
-554
-95
94
-407
-855
-1115
-1077
-921
-744
-441
-636
-743
-1044
-1395
-1567
-976
-726
-556
-392
-902
-573
-958
-1392
-1432
-1249
128
373
48
55
-647
-1591
-1615
-1490
-1671
-504
-160
349
-514
-1243
-1638
-1672
-1132
-60
356
435
-237
-1035
-1545
-1489
-1021
-715
-472
-318
-216
-772
-1056
-813
-1050
-923
-300
39
87
-71
-693
-1319
-1525
-1170
-1128
-925
-267
124
-55
-792
-1612
-1314
-1091
-913
-339
38
-257
-1166
-1495
-1287
-1280
-386
-37
-104
19
-39
-307
-1108
-1556
-1129
-390
-175
-426
-609
-996
-1386
-1266
-903
-623
-486
-730
-885
-1127
-1321
-1740
-1498
-1208
-347
545
241
-326
-1124
-1372
-1642
-1025
-661
-368
-109
-588
-753
-1117
-1056
-1396
-1050
-609
188
-113
-726
-1033
-1206
-1332
-846
-625
-130
-94
-384
-547
-898
-1122
-825
-406
349
33
-435
-565
-139
-508
-958
-793
-406
142
518
368
-310
149
-91
-763
-487
379
439
133
-420
-985
-910
-862
79
829
486
-254
-571
-464
-954
-1328
-1164
-673
-136
520
575
42
-1264
-1437
-1223
-1274
-390
121
-104
-440
-730
-1061
-879
-744
-622
-47
79
8
-693
-1394
-1305
-965
-736
-246
-132
-541
-1085
-959
-818
-899
-969
-548
-101
-268
-491
-886
-1190
-1106
-1136
-1020
-1180
-1143
-1036
-1139
-1039
-1161
-592
524
2156
3307
4461
4650
4829
5297
5665
4958
4229
4253
3874
3333
2526
749
-1047
-1526
-1275
-1140
-889
-1081
-1211
-1431
-1276
-1434
-1186
-963
-402
-612
-1224
-1236
-1599
-1471
-1538
-1258
-706
6
-599
-807
-843
-1287
-1556
-978
-363
-27
-494
-592
-716
-1329
-1392
-1033
-598
-602
-306
-38
102
-588
-1246
-1118
-684
-613
-483
-309
-709
-874
-742
-366
-434
-552
-502
-341
-209
-535
-769
-881
-1223
-1228
175
887
677
161
197
-546
-1452
-1082
-367
126
678
450
-55
-344
-329
-220
-229
364
468
795
910
591
-271
-653
-205
679
1048
1137
935
579
138
785
606
424
832
1465
1418
1494
782
395
514
414
589
1071
1660
1739
1570
731
157
320
1066
1842
2274
1851
366
321
-147
-261
326
510
345
827
704
277
-259
-609
-653
-209
105
84
617
358
-118
-445
-1108
-1064
-747
-58
332
-232
-418
-927
-1021
-907
-978
-516
96
-60
-265
-1111
-915
-550
-750
-662
-131
-81
-319
-627
-1077
-1002
-829
-976
-429
42
114
-36
-1200
-2147
-1196
-581
-597
-487
-508
-399
-643
-1037
-1595
-1354
-718
-5
57
195
-90
-988
-1679
-1907
-1296
-99
-67
-468
-305
-747
-1051
-1015
-997
-673
-416
37
147
-121
-457
-964
-1355
-1222
-619
-98
-151
-524
-677
-883
-1044
-441
-169
-616
-213
159
15
-781
-1204
-995
-318
-308
-220
-475
-258
-499
-957
-998
-862
-560
-176
-2
36
-256
-853
-1384
-1159
-396
-67
612
34
-771
-606
-863
-1376
-1135
-524
98
280
-288
-1183
-879
-932
-441
924
419
-861
-1
286
-974
-1280
-1072
-660
-77
-203
-285
51
-23
-649
-967
-1143
-747
-476
-49
214
290
-656
-793
-878
-906
-107
190
-59
-91
-385
-965
-1146
-569
-510
255
1088
486
-499
-937
-846
-443
21
374
631
708
450
-45
-429
-1048
-746
577
928
690
163
-221
-400
-646
-735
-871
-414
364
624
683
-63
-963
-1108
-870
-413
58
232
-222
-417
-622
-1217
-1144
-1052
-776
195
235
-427
-1149
-1291
-1250
-839
-91
-182
-54
250
-502
-644
-1141
-1495
-915
-487
-308
-230
-517
-1220
-1929
-1624
-872
-957
-1154
-961
-1099
-1432
-1377
-1125
-88
987
2460
4105
5302
5292
5705
5855
6021
5684
5738
5684
5066
3937
2184
8
-989
-1563
-993
-269
-101
-391
-652
-1081
-1637
-1357
-1043
-779
-468
-119
-467
-844
-886
-742
-379
-866
-562
-277
-548
-298
-377
-679
-993
-1512
-816
37
217
-127
-547
-543
-294
-474
-587
210
309
-59
-699
-971
-967
-471
-251
252
626
528
706
-209
-841
-464
-538
-186
227
325
437
203
-257
-478
-907
-287
357
534
155
-219
-568
-832
-725
-233
90
463
905
822
701
390
-62
-229
5
565
1128
1069
575
422
322
219
486
625
1114
1624
2030
1199
344
179
174
801
1358
1754
1713
1456
1262
931
635
598
1483
1492
1830
2009
1354
1200
670
1098
1100
1405
1790
2148
1633
1047
348
364
522
674
1094
1666
1191
550
-7
85
237
317
725
761
467
-200
-296
-102
-268
-527
64
1247
990
359
64
-496
-743
23
378
228
502
593
651
-97
-504
-171
3
55
512
655
260
-218
-701
-533
-466
19
485
691
761
580
-48
-565
-136
80
412
1319
634
408
196
-256
-485
-178
383
829
1173
233
-135
64
19
210
268
553
943
955
304
64
-21
-423
-672
-4
919
1219
677
-255
-290
-682
-704
-35
668
957
661
352
-484
-356
-8
-218
350
826
801
235
-448
-874
-978
-434
43
484
621
890
308
-460
-1118
-571
16
-36
-120
269
193
-638
-398
-71
-438
-174
-77
612
508
-367
-646
-746
-553
-110
174
86
195
219
-1
-1062
-931
-348
-51
566
632
640
526
-359
-1133
-791
191
242
710
1293
959
148
-542
-700
-272
154
676
978
507
82
-475
-924
-696
-324
370
297
-34
349
437
-174
-589
-262
284
1020
915
479
189
-216
-53
-210
206
941
1108
379
597
590
-273
-524
-44
563
696
942
657
-370
-695
-878
-817
-101
464
574
413
149
-263
-603
-571
-387
-101
294
808
986
104
-588
-527
-712
-517
180
651
797
-336
-936
-1051
-231
-139
200
375
481
513
12
-567
-649
-707
-765
-212
-88
51
386
-402
-1222
-1114
-760
-292
-9
286
-412
-547
-54
329
1079
2563
3858
4965
5667
6602
6812
6456
6036
6127
5845
5157
4480
3404
1292
-369
-1375
-1282
-536
-231
333
-133
-925
-1336
-1129
-1164
-735
-593
95
420
126
-669
-919
-405
-250
-58
215
559
376
-559
-438
-697
-1052
-245
283
660
308
403
-178
-424
-620
-266
451
534
599
153
240
111
-224
-786
-184
281
797
720
285
-96
12
-195
-68
259
550
601
790
64
-495
-352
-87
176
388
588
557
178
312
576
-44
-85
447
865
900
895
1027
542
-515
51
1264
1532
1436
1611
1093
560
369
421
596
1246
1799
1944
1410
941
955
1283
1140
1004
1553
1883
1528
1189
1065
970
1144
1352
1876
2170
2150
2163
1223
816
707
622
718
1815
2096
1759
1000
-223
-190
103
799
1266
1298
1209
369
131
-450
-812
-479
89
68
275
162
82
-198
-621
-872
-493
-389
-184
-21
-686
-1086
-1179
-756
-361
-386
-633
-316
-50
-469
-1184
-1848
-1590
-646
-70
152
-306
-900
-1270
-967
-1267
-989
-16
-67
190
-295
-827
-1268
-1552
-1599
-751
-454
17
272
-347
-646
-1177
-1491
-1059
-493
-39
20
-636
-1344
-1178
-911
-729
-1122
-527
231
-62
-70
-788
-1278
-1352
-942
-824
-338
72
-113
-700
-1030
-1494
-1776
-629
-271
-290
-180
-721
-1103
-1158
-960
-923
-410
150
93
-182
-1062
-1762
-1322
-627
-308
-103
8
-123
-456
-502
-239
-522
-903
-355
-264
-403
-1094
-1704
-1386
-1067
-694
-233
-197
-210
-418
-550
-952
-1488
-1599
-776
77
-211
-818
-1067
-1502
-1412
-1297
-1086
-919
-352
-814
-875
-1007
-1046
-844
-1490
-998
-653
-355
128
62
-725
-909
-1248
-1439
-701
-209
-8
-538
-1291
-1386
-2057
-1941
-808
-211
-239
-473
-371
-1406
-1679
-1561
-1271
-720
-573
-372
-213
-336
-1301
-2218
-1689
-1131
-740
-206
-66
-215
-1035
-1385
-815
-323
-251
-500
-255
-511
-1139
-1293
-1371
-1198
-441
3
136
-80
-385
-1038
-1505
-1758
-635
-240
-415
-891
-1242
-1430
-1822
-1985
-1914
-853
142
-730
-532
-850
-1282
-1554
-1406
-1092
-1231
-1026
-612
-935
-1467
-1963
-1969
-1716
-1436
-923
-42
-168
-1317
-1909
-2810
-2224
-1533
-1201
-704
-617
-1161
-1392
-1874
-2002
-1776
-1501
-1529
-1511
-2049
-2099
-2281
-2808
-2309
-1385
63
1630
2236
2558
3244
4316
5198
5357
5253
5426
4860
4330
2968
1544
470
-727
-1070
-1255
-1503
-1522
-1367
-1982
-2480
-2689
-2422
-1903
-1310
-1017
-1554
-2157
-2333
-2257
-2627
-1628
-911
-1166
-1272
-1547
-2212
-2185
-2093
-1703
-1058
-1668
-1296
-711
-975
-1749
-2615
-2180
-1519
-979
-503
-691
-1343
-1548
-1902
-1933
-1563
-653
-256
-807
-1404
-2057
-2025
-1441
-1060
-1249
-802
-752
-843
-1252
-1811
-1802
-1771
-1208
-702
-744
-667
-600
-941
-1537
-1314
-1086
-776
-35
-55
-396
-340
-1055
-1471
-801
-530
-185
-43
250
482
-342
-552
-845
-150
341
645
1120
1005
113
-183
-384
-279
683
1127
871
478
553
480
425
723
399
336
1128
1402
1290
549
193
-172
204
724
1175
1649
1236
533
257
184
-165
-341
282
689
492
48
127
-640
-1129
-666
236
-21
-60
206
-321
-1411
-1871
-1420
-965
-499
-456
-466
-776
-1067
-1330
-1313
-1291
-1252
-1182
-855
-879
-898
-1372
-1674
-1650
-955
-777
-827
-733
-564
-1376
-1728
-1976
-2075
-1389
-286
197
-702
-1258
-1368
-1632
-1228
-1008
-825
-492
-360
-772
-1364
-1949
-1894
-1132
-591
-231
7
-172
-1116
-2041
-1569
-1337
-1193
-440
-44
-638
-927
-1222
-1781
-1245
-874
-629
-387
-344
-877
-1109
-1546
-1176
-1179
-1117
-735
35
-423
-1870
-1641
-1306
-1169
-670
-394
-76
36
-128
-728
-1257
-1825
-1471
-1115
-388
-6
-482
-1203
-991
-794
-1157
-1289
-877
-457
-134
-474
-1197
-1752
-1739
-1118
-536
-338
-220
-722
-1571
-1926
-1787
-1694
-927
-350
-223
-603
-734
-1206
-1542
-1485
-1497
-848
-751
-941
-852
-1270
-1760
-1809
-1740
-1415
-938
-625
-527
-580
-1033
-1667
-1829
-1183
-724
-907
-331
-347
-773
-1664
-1906
-1351
-1076
-389
-468
-1124
-929
-1331
-1793
-1697
-1678
-1553
-874
-319
-246
-150
-926
-1151
-1060
-745
-360
-404
-197
-39
-1028
-1642
-1195
-955
-1088
-821
-434
-820
-1047
-1465
-1250
-1134
-1216
-1287
-594
16
-817
-1308
-1324
-1181
-1142
-912
-408
-397
-650
-1192
-1307
-1576
-1112
-449
-286
-233
-734
-1615
-1494
-1364
-1561
-1035
-491
-266
-336
-889
-1318
-1661
-1494
-967
-1082
-476
-425
-485
-951
-1338
-1647
-1350
-1021
-570
102
-811
-1566
-1970
-2356
-1578
-1039
1
700
1385
2242
3036
3699
4225
5153
5525
5737
5818
4854
3260
2665
1784
332
-545
-1018
-561
-476
-701
-1252
-1770
-2071
-2324
-1520
-898
-668
-826
-985
-1086
-1947
-1754
-1469
-956
-291
-227
-361
-1116
-1887
-1883
-1027
-841
-374
316
-582
-992
-1140
-1271
-1514
-1349
-299
98
-281
-577
-810
-855
-1143
-1349
-1331
-1013
-68
402
-506
-873
-1053
-1144
-795
-239
-118
-167
-310
-714
-976
-1249
-1448
-843
-356
54
-312
-771
-858
-934
-711
-402
64
908
293
-218
-551
-443
-106
-464
-620
-86
779
1110
254
-88
-393
-347
142
1078
1458
1004
781
665
150
-16
592
1168
1208
1558
1007
476
231
122
642
1092
1673
2025
1770
1217
364
96
206
630
1241
1189
1447
942
536
111
-2
-15
480
716
465
421
-112
-489
-474
-231
-748
-820
241
561
-154
-964
-1243
-1303
-1262
-604
-312
97
-451
-1104
-1604
-1756
-1695
-1514
-895
-673
-575
-242
-234
-743
-1203
-1705
-1255
-854
-1121
-1251
-1269
-1662
-1738
-1554
-1463
-1094
-1184
-971
-1104
-1622
-1604
-1705
-1894
-1356
-291
-82
-776
-1282
-1684
-1661
-1594
-1735
-984
-326
-679
-1447
-1963
-2319
-1700
-1260
-610
-319
-265
-253
-948
-1507
-1888
-1608
-1050
-827
-710
-647
-1097
-1119
-1476
-1681
-1676
-1084
-796
-303
11
-449
-1259
-1124
-1516
-1464
-628
-481
-610
-644
-912
-1469
-1796
-1643
-1495
-615
-132
-85
-746
-1565
-1340
-1419
-1609
-1298
-638
-447
-639
-1267
-1651
-1630
-1616
-1611
-427
44
-498
-1134
-1661
-1831
-1561
-1110
-403
258
-287
-1037
-1310
-1750
-1762
-1805
-849
0
-438
-1017
-1379
-2259
-1914
-1375
-1337
-798
-56
-216
-772
-1302
-1828
-1864
-1547
-1252
-710
74
-418
-908
-1381
-1091
-1055
-820
-594
-806
-816
-608
-1089
-1111
-1216
-1258
-993
184
587
-475
-1137
-899
-956
-875
-172
306
422
105
-555
-831
-760
-970
-835
-322
-288
-412
-986
-925
-1065
-1203
-1025
-639
-212
34
204
-673
-1160
-1605
-1633
-1431
-678
-423
-32
-370
-1292
-1471
-1324
-1219
-675
-173
87
-372
-1045
-1163
-1396
-1108
-1133
-856
385
418
-752
-1494
-1741
-1691
-1369
-1462
-459
-622
-1165
-1949
-2329
-2559
-1914
-829
455
904
1270
1928
2551
2996
4067
5395
6067
5971
5720
4514
3712
2547
1450
498
-323
-629
-586
-879
-1047
-1473
-1903
-2013
-1829
-1482
-1238
-1002
-1071
-1680
-1763
-2056
-2003
-1439
-817
-492
-527
-1196
-1850
-2007
-1766
-1376
-710
-397
-131
-545
-1700
-2003
-1735
-1794
-1348
-891
-333
146
-484
-1551
-1889
-1416
-1124
-324
-112
-734
-719
-1139
-1309
-1409
-1417
-1128
-336
-507
-580
-891
-1366
-1193
-603
-691
-988
-527
-614
-430
-725
-1165
-1463
-1690
-352
578
341
-29
24
-506
-784
105
-518
-564
307
215
-133
-121
-118
-274
51
240
743
604
194
34
241
145
383
613
952
1196
1034
366
261
83
68
173
1286
2184
1630
574
425
481
597
509
738
960
994
1043
647
-317
-489
-474
-292
580
797
656
727
328
-167
-934
-1047
-565
-150
-115
-72
-411
-1121
-1368
-1213
-832
-608
-253
-66
-571
-1321
-1650
-1773
-1193
-510
-315
-699
-1214
-1054
-1543
-2248
-1887
-797
-270
-1047
-824
-806
-1376
-2027
-2183
-1380
-724
-83
-140
-515
-907
-1488
-1560
-1822
-1211
-218
-328
-517
-303
-1088
-1423
-1637
-1439
-1084
-486
-418
-844
-1023
-1477
-1295
-1188
-943
-284
117
-225
-736
-1546
-1819
-1487
-1063
-565
129
-6
-631
-903
-1320
-1737
-1655
-1255
-298
43
261
-65
-1009
-1263
-1497
-1152
-610
356
-36
-389
-875
-955
-790
-749
-819
-399
-252
-1096
-1129
-1283
-1129
-1029
-866
-215
3
107
-535
-942
-1196
-1104
-965
-534
-472
-389
-364
-704
-1470
-1633
-1154
-662
-434
-456
-743
-478
-354
-993
-1405
-958
-613
-298
-452
-72
-784
-1231
-1216
-1341
-476
383
-25
19
-77
-988
-1512
-1402
-765
-281
124
285
78
-401
-1222
-1227
-1261
-20
-7
-435
-413
-707
-770
-1174
-1160
-622
-341
-56
-34
-703
-859
-1110
-1479
-1190
-420
471
598
258
-345
-787
-816
-825
-754
-165
230
448
143
-609
-818
-804
-145
94
442
644
224
-437
-787
-584
-1070
-1142
-454
-491
56
-185
-951
-1241
-1254
-1088
-835
-533
-204
33
-495
-1324
-1785
-1317
-684
-545
-244
94
85
-438
-1299
-1684
-1787
-1320
-363
204
-290
-1035
-1363
-1348
-1159
-1024
-935
-411
-406
-462
-1214
-1624
-2061
-1587
-791
-1198
-874
-945
-1263
-1411
-1344
-714
423
1399
2315
3498
3965
5328
6670
6162
5701
5667
6103
5675
4794
3609
1887
-70
-875
-960
-847
-600
-330
-756
-1532
-1953
-1834
-2184
-1528
-678
-686
-848
-352
-798
-1372
-1268
-554
-33
-668
-948
-356
-538
-1355
-1392
-1134
-497
26
31
-395
-1011
-1410
-1193
-1352
-861
-283
-519
-475
-673
-1006
-1151
-839
-262
15
-11
188
91
-657
-769
-1088
-1032
-384
198
29
-176
-497
-914
-911
-478
-388
-123
216
-23
-31
143
106
-319
-224
-6
359
860
914
428
-122
-445
-589
261
417
542
1131
716
139
399
386
476
761
1633
2087
1391
1016
757
543
758
995
1719
2061
2107
1694
785
942
1009
1099
1118
2040
2378
1868
1240
1187
1265
1318
1572
1331
1151
1298
1491
983
786
680
564
998
1245
1174
956
511
-68
-574
-306
346
954
682
211
58
50
-712
-609
-379
127
714
266
-20
-302
-987
-956
-1242
-921
263
466
-44
-701
-1130
-1208
-1009
-131
22
24
87
-214
-233
-957
-919
-784
-369
42
-97
111
-337
-884
-849
-845
-661
35
738
1186
267
-978
-826
-336
-317
-614
-212
349
61
-182
-561
-1062
-936
-922
-648
-178
10
-240
-229
-973
-541
-32
-148
-119
220
300
-192
-757
-1085
-651
-627
-318
143
-281
-495
165
110
-448
-559
-592
-319
217
28
-807
-889
-1230
-1092
-966
-330
865
131
-286
-430
-949
-884
-512
-824
-560
-198
-162
-361
-878
-718
-426
-799
-435
-374
-805
-792
-318
-858
-674
-704
-498
245
575
148
-703
-829
-1529
-1468
-375
721
827
137
-3
-572
-829
-738
-668
-225
-254
27
-659
-995
-475
-209
-550
-368
623
634
48
299
-157
-805
-932
-510
360
370
895
1189
110
-1194
-596
582
59
-128
116
430
-48
-614
-691
-327
-126
319
806
844
-109
-74
109
-166
-356
-310
141
396
512
-125
-407
-267
-229
94
549
759
1133
846
575
224
58
356
645
993
1106
1041
448
-241
-648
-716
333
1094
1162
1267
1009
-47
-589
-177
620
888
569
883
931
435
54
-738
-702
251
625
933
177
-372
122
-40
-439
-217
457
993
704
73
-661
-936
-614
-284
353
925
1082
363
-203
-488
-754
-958
-964
-745
48
346
-50
-805
-1919
-1791
-1025
59
1176
2166
2668
3426
4005
5243
6342
7121
7527
6812
6312
5503
4570
3689
2463
1924
1174
652
113
-3
-155
-780
-1497
-983
-423
-257
-245
217
99
-721
-1050
-333
-338
30
542
585
214
-217
-344
-766
-1183
-403
212
255
-215
-298
-191
-362
-388
-202
447
1419
1074
-136
-425
-683
-827
-484
-423
-206
552
521
436
-197
-651
-437
-200
-138
753
815
-225
-524
-778
-549
-251
-113
529
966
877
18
-207
-473
-273
219
53
96
844
1146
1120
895
481
193
161
832
1611
1531
1429
920
415
375
616
1362
1809
2212
1603
532
803
996
1404
1717
1951
2049
1907
1228
1002
1213
1225
1375
1870
2435
2508
1989
1237
1286
1345
957
1973
2360
2453
2165
1518
848
816
945
1285
1543
1887
1381
1091
847
276
53
-54
-17
829
1764
1476
545
-616
-849
-397
-243
-12
355
135
252
-729
-1145
-901
-627
123
474
417
268
-493
-740
-839
-739
-653
139
353
-31
-55
-611
-1130
-1449
-1115
-324
554
489
417
100
-1074
-1207
-1037
-852
-165
80
67
-285
-828
-999
-1482
-770
130
-59
-69
-170
-651
-889
-929
-718
-968
-992
-795
-721
-134
-241
-790
-706
-292
-613
-5
1102
713
-101
-799
-1063
-876
-493
272
945
621
-383
-959
-1403
-1267
-697
271
436
272
-161
-847
-988
-730
-908
-427
557
420
-130
-18
-388
-830
-930
-387
4
449
405
291
-414
-1076
-893
-532
-100
117
206
-498
-618
-705
-1218
-982
-640
-9
-146
155
-158
-459
-810
-879
-529
-155
-10
179
-319
-944
-447
-406
-370
-175
-158
94
2
-231
-736
-1174
-1004
-970
-533
293
-28
-197
-420
-999
-1012
-200
-316
-45
-41
-16
-179
-602
-719
-829
-881
-647
10
479
-118
-724
-1174
-1607
-1404
-427
226
667
478
-279
-704
-964
-783
-578
-238
32
255
-34
-843
-616
-818
-1202
-532
349
290
684
355
-982
-1178
-1024
-739
-606
34
284
-55
-213
-697
-666
-109
-322
-233
337
625
115
-793
-1018
-567
-110
281
253
363
205
-398
-628
-1309
-1014
-382
-56
47
104
-138
-574
-996
-1108
-732
-235
-77
-320
-162
-1033
-1164
-1002
-1220
-638
163
262
-439
-990
-1630
-1770
-1877
-1224
-14
768
143
-540
-1046
-1065
-1605
-1784
-1061
-30
242
-636
-1276
-1765
-2363
-1419
-911
-1070
-1051
-535
-1137
-1777
-1238
-382
242
924
1779
3187
4130
4550
5069
5492
5373
5394
5399
4915
4518
3597
2177
386
-850
-1494
-964
-1162
-1007
-1124
-2021
-1913
-1562
-1693
-1254
-675
-75
-86
-776
-2081
-1737
-1223
-965
-571
-108
-179
-354
-1011
-1308
-1191
-796
-334
62
-66
-299
-196
-595
-1369
-1669
-1534
-597
404
-290
-265
-251
-1168
-1372
-687
30
147
581
280
-694
-1152
-1221
-756
-462
-84
656
557
-86
-986
-1276
-411
-6
618
695
1297
462
-773
-1120
-768
-229
-203
433
1027
1178
609
-204
-259
-196
603
802
427
1040
751
878
-91
-407
550
1332
1657
1583
1259
1103
367
21
691
981
1504
2237
1771
1791
1421
763
925
1214
1923
1875
1700
1979
1770
872
238
360
1033
1889
2044
1818
1902
1046
156
396
858
1442
995
941
993
540
-221
-640
-245
141
216
696
423
69
-381
-908
-1103
-200
186
5
-17
-419
-589
-654
-1162
-1452
-1424
-641
505
447
-449
-1084
-1616
-1029
-137
-428
-456
-327
-274
-192
-663
-1422
-1489
-1323
-567
-119
191
-270
-1344
-1890
-1382
-996
-654
-180
67
124
-16
-1394
-1608
-1217
-1077
-360
-178
-494
-684
-1076
-1173
-1169
-1235
-750
275
475
-246
-812
-1223
-1333
-1489
-690
-230
3
-297
-832
-1138
-1435
-1337
-1319
-759
-72
-365
-197
-531
-1201
-1299
-927
-532
-613
-537
-219
-520
-777
-1290
-1313
-849
-492
-216
-238
-630
-943
-891
-1360
-1061
-391
-210
79
198
-656
-1321
-1156
-569
-910
-502
124
212
407
-597
-1413
-1363
-1250
-976
-515
-306
57
-396
-976
-1276
-1157
-964
-647
-30
221
-490
-952
-1299
-1545
-1205
-594
56
-349
-708
-348
-816
-1292
-1260
-875
-464
-318
-416
-243
-682
-1366
-1549
-1226
-340
728
861
52
-348
-681
-1184
-846
-649
-521
-61
284
-38
-1201
-1528
-786
-428
-120
-24
-83
350
188
-863
-1365
-531
13
-20
558
596
322
-559
-739
-939
-1102
-480
282
657
326
-276
-739
-931
-687
104
45
-68
-567
-1003
-1170
-1368
-1094
-302
613
320
136
-969
-1376
-1316
-1352
-1112
-448
-213
-223
-282
-895
-1073
-1185
-1589
-908
-171
-473
-1029
-815
-1194
-1209
-1171
-1054
-1030
-385
146
-491
-976
-1358
-1411
-1223
-1586
-1145
-1217
-926
-791
-891
-1181
-982
124
1702
3123
4058
4756
5096
4582
4015
4316
4765
4372
3716
3155
2610
727
-687
-1762
-1679
-1273
-1082
-475
-940
-1340
-1617
-2017
-1911
-1660
-931
-408
-416
-684
-1295
-1589
-1452
-1334
-889
-536
-386
40
-125
-637
-1764
-1735
-1142
-494
-176
117
-505
-922
-970
-1021
-602
-376
-177
-361
-669
-575
-236
-414
-457
-62
403
21
-126
-413
-495
-835
-1783
-1006
-117
-91
-18
360
154
-405
-1017
-709
141
749
1059
491
-193
-245
-162
-705
-218
173
579
1071
920
221
-254
-240
32
755
1529
1416
1149
733
679
476
-144
692
1560
1771
1308
1346
1497
1125
890
1100
1692
2235
2177
2527
2051
940
1156
1291
1495
1748
1815
2261
2242
1277
708
978
1060
1135
1519
1591
1509
870
381
402
844
1181
1297
1438
1289
749
95
-112
-474
-204
169
747
681
-545
-518
-491
-1124
-861
87
233
323
430
228
-488
-702
-817
-479
-209
-136
366
467
-871
-1225
-1086
-697
-124
146
534
-53
-461
-635
-1099
-1034
-668
-80
184
232
178
-633
-1086
-929
-649
-566
-128
371
282
-78
-688
-916
-468
-234
-501
-432
230
-5
-246
-617
-987
-1011
-469
11
698
1026
67
-1015
-808
-858
-727
-326
297
421
-1
-159
-165
-66
-251
-2
230
532
-232
-478
-795
-804
-561
-16
316
230
373
428
-24
-488
-1195
-875
217
742
592
215
-474
-959
-1186
-543
-449
336
784
608
10
-477
-1126
-941
-842
-409
46
392
418
-534
-835
-664
-868
-500
274
300
515
212
-371
-844
-1165
-1188
-481
299
650
607
300
-1185
-1126
-522
-274
76
621
-6
-120
-132
-283
-612
-337
105
243
364
3
-658
-561
-506
-374
112
726
558
-134
129
-354
-890
-819
-493
53
1052
700
-150
69
146
-312
-119
475
710
769
530
492
82
-204
-290
-317
302
1367
1367
523
327
106
-259
-179
682
1104
680
511
315
-774
-1164
-406
354
717
1091
915
311
-581
-1206
-763
-541
293
479
476
184
-390
-742
-1283
-581
145
652
446
353
248
-363
-485
-378
-417
242
467
396
217
-106
-689
-851
-528
-616
-250
407
-288
-565
-1460
-1641
-1307
-1346
-616
391
-193
-798
-974
-675
-279
603
1887
3253
4455
5592
6502
6270
6117
6074
5706
5151
4587
3815
3120
1817
-370
-1282
-701
-39
303
-27
-603
-962
-1185
-1192
-1035
-753
-5
-180
61
-165
-443
-493
-910
-1209
-786
-522
-36
173
-466
-994
-871
-837
-832
54
638
402
44
-719
-1094
-751
-578
-256
915
749
159
-196
-544
-1398
-792
-316
-20
778
379
182
461
-283
-715
-613
121
1003
857
520
-75
-823
-1205
-510
527
701
497
974
1166
155
-791
15
255
409
1418
1311
523
533
908
552
259
501
1289
1656
1366
993
870
530
911
1070
1463
1887
1995
1848
1006
714
717
1236
1919
1928
2019
2010
1772
1274
1153
613
1013
2708
3148
2617
1763
1537
889
995
959
1558
1975
2242
1659
979
621
452
718
736
1187
1406
1339
1324
869
50
-300
232
819
763
1328
758
-183
-402
-970
-997
-675
229
823
85
-95
-650
-1363
-1375
-1045
-435
224
344
-6
-332
-717
-745
-712
-539
90
558
245
-492
-598
-983
-761
-694
-488
45
36
122
-149
-541
-677
-808
-599
176
427
187
132
-358
-1086
-1391
-814
-63
218
163
22
-404
-849
-965
-872
-262
758
980
344
39
-241
-767
-1141
-517
-86
-97
303
163
-394
-423
-713
-712
-78
146
152
255
8
-917
-650
-661
-1311
-112
238
478
521
-442
-886
-771
-950
-413
20
558
723
87
-709
-709
-603
-265
164
359
389
209
-259
-917
-1439
-1384
-473
380
344
578
182
-268
-758
-669
-690
-61
457
140
-315
-763
-1155
-1407
-842
-142
689
1001
34
-315
-732
-909
-699
-295
-32
39
233
168
-176
-805
-687
-178
-232
54
628
436
-197
-752
-747
-625
-406
92
502
244
-87
-869
-916
-700
-458
-8
443
399
217
-477
-723
-614
-460
-174
125
204
469
660
48
-361
-763
-850
-249
530
582
235
390
284
-63
62
-128
525
1425
1051
117
-528
-326
43
-113
496
1081
1351
419
219
-94
-509
-156
33
568
484
402
-91
-520
-412
-357
-113
53
273
304
390
-237
-1609
-1674
-1098
-84
775
517
123
-221
-461
-686
-417
-305
536
429
-127
72
-184
-1064
-1245
-908
-720
-337
134
496
214
-413
-1195
-999
93
106
-290
-638
-699
-1553
-2005
-1443
-768
162
1189
1949
2180
2747
3666
4949
5441
5679
6890
7606
7002
5804
4724
3833
2645
1910
1015
510
-64
-385
-1001
-1315
-1034
-382
-761
-332
163
-136
-413
-1071
-1065
-1162
-881
-177
243
259
15
187
-271
-45
-928
-1228
-326
376
574
23
-699
-562
-682
-910
-455
915
699
-429
-639
-797
-1104
-860
-138
805
861
151
-70
-315
-591
-578
-327
224
384
203
-413
-8
714
-485
-381
231
1064
1069
679
65
-202
-415
-266
194
155
316
472
718
263
-640
-397
244
764
919
1204
1251
708
97
259
208
943
1348
1329
1571
1553
1142
1036
988
1137
904
1651
2359
1591
1529
1757
1202
934
1247
1998
2240
2045
1603
1423
1108
823
1113
1715
2463
2279
1757
1660
1354
1017
574
805
1870
2044
1438
566
318
252
80
448
579
1030
1445
792
189
71
124
99
-154
317
795
407
-318
-773
-1008
-980
-495
119
399
442
353
-204
-1042
-1266
-780
-86
342
118
119
259
-564
-958
-972
-754
-124
340
27
-119
-520
-1085
-1022
-379
-703
-274
712
456
-331
-910
-896
-869
-692
372
624
207
-166
-495
-1162
-1287
-692
333
521
507
212
-614
-640
-502
-100
393
210
-122
-11
-169
-949
-1098
-829
-740
74
349
574
524
-26
-325
-641
-852
-524
-491
300
279
-11
-778
-1086
-756
-491
-549
-161
-266
62
174
-549
-686
-1073
-789
128
655
375
-237
-249
-619
-696
-695
-702
271
544
-24
-291
-492
-835
-903
-357
471
481
-100
-119
275
-263
-1164
-755
241
329
494
367
-390
-1375
-1149
-806
-239
521
543
317
57
-520
-954
-811
-725
-385
344
841
268
336
623
-379
-1136
-310
373
676
751
212
-1443
-1644
-228
418
245
472
298
115
-173
-415
-558
-69
268
276
-190
-127
1
-472
-829
-1117
-820
-275
315
508
-20
-297
-504
-824
-874
-257
135
26
-113
-437
-691
-1136
-1114
-473
130
687
370
-33
-389
-605
-754
57
353
858
550
680
395
-688
-844
-851
-594
46
302
244
139
303
-465
-523
-406
-113
91
135
-599
-1272
-1367
-1118
-1013
-781
63
90
-451
-508
-862
-1219
-1373
-945
-676
-240
-5
-376
-644
-830
-810
-1512
-1304
-560
-488
-579
-627
-513
-754
-1631
-946
-904
-939
-472
-669
-1340
-1764
-1769
-1742
-1220
-778
-114
196
687
1250
1999
3231
4440
6227
6836
6645
6438
5330
4527
3525
2825
2323
1498
12
-831
-1105
-1478
-1832
-1783
-1553
-1304
-871
-496
-706
-1617
-1730
-2105
-1748
-1280
-937
-457
-501
-617
-1550
-1634
-1612
-1624
-684
-431
1
-351
-1012
-1083
-1192
-1310
-649
-121
-63
-641
-1223
-1766
-1575
-977
-900
-14
337
-73
-169
-552
-1219
-1060
-529
-362
-335
-358
-434
-617
-900
-1187
-863
-380
317
553
132
-273
-629
-871
-462
-495
90
381
769
773
474
-29
-202
173
583
713
876
1135
202
575
619
-16
427
1065
1390
1617
1262
1273
1126
635
735
1133
1789
2631
1868
1478
842
48
443
935
1681
2811
2419
2273
1587
1323
1240
1267
1425
2130
2099
1773
1407
1200
1832
1667
1242
1379
1713
1638
1407
891
228
210
567
768
1330
1041
716
274
58
-133
-70
-61
473
232
208
380
-131
-523
-434
89
352
834
706
131
-300
-920
-1115
-392
-194
42
657
391
111
-330
-461
-768
-574
-115
235
115
319
446
-131
-962
-1292
-509
-26
670
556
-8
-615
-981
-816
-419
-2
357
138
13
25
-512
-1314
-846
179
194
158
60
230
28
-802
-667
-186
142
1060
915
228
16
-342
-866
-324
-52
-126
261
184
-428
-835
-1064
-947
-307
289
564
528
168
-172
-617
-615
-1019
-3
586
174
558
513
187
-508
-795
-622
-135
688
598
198
17
-516
-570
89
195
112
-79
440
56
-843
-464
-536
-518
-39
371
637
96
-667
-720
-803
-911
-238
139
132
287
203
-596
-923
-866
-587
-149
608
932
238
-350
-1178
-804
-410
-158
40
494
598
22
-127
-8
-813
-665
37
481
315
350
-503
-777
-633
-289
18
280
553
352
-222
-428
-718
-1323
-345
665
543
-228
194
-61
-576
-333
8
367
488
847
990
872
125
-560
-14
33
337
742
348
110
-151
-973
-852
-339
85
610
274
-26
-458
-389
-109
-329
-807
-71
354
81
-708
-1021
-881
-532
-331
152
557
583
365
-7
-545
-596
-831
-769
-588
-175
-504
-888
-893
-741
-672
-279
266
397
-257
-450
-532
-1058
-1067
-745
-412
-251
-162
-208
-799
-1816
-1850
-1642
-992
142
1328
2112
2589
3337
3370
3215
4757
5997
6571
5646
4973
4445
3292
2428
1464
183
-500
-499
-237
-131
-572
-1294
-1783
-1563
-912
-579
-628
-713
-1054
-1067
-905
-765
-423
56
294
110
-698
-838
-952
-966
-420
150
217
223
-479
-954
-1039
-1213
-777
137
380
-295
-264
41
-89
-493
-777
-394
-156
693
688
-319
-256
-298
-847
-984
-360
498
108
128
405
-225
-433
-15
-48
243
733
828
376
-276
-141
233
71
481
1270
1377
784
231
209
-115
274
234
102
613
1069
1377
751
367
271
798
1458
1826
2260
2208
2117
1150
386
817
1233
1761
2345
2289
1653
1342
1574
1559
1259
2291
2002
2242
2406
1655
1170
852
1361
1731
1753
1862
2149
1562
968
709
571
1253
1265
1599
1648
1248
622
459
389
-277
240
1100
1362
703
306
-313
-381
-349
-485
-12
400
475
153
-406
-673
-677
-602
196
20
221
189
-332
-599
-1045
-1227
-306
377
-188
136
69
-382
-679
-775
-567
-390
-76
27
-314
-736
-925
-854
-559
-205
-54
-231
-403
-196
-501
-834
-1080
-1024
-556
198
184
-274
-637
-1101
-1015
-776
-696
-623
-550
-182
-304
-929
-583
-455
-1003
-797
222
403
209
-214
-570
-1214
-1143
-971
-667
-698
-334
197
180
-342
-1220
-1109
-643
4
44
-315
-509
-855
-964
-925
-348
196
306
-350
-779
-839
-894
-1264
-562
-392
-324
310
353
-331
-1206
-1575
-1237
-506
0
62
144
-64
-392
-1075
-1565
-1051
64
94
192
142
-641
-739
-859
-1143
-940
-152
288
155
-198
-1217
-1369
-1249
-1037
-139
107
231
131
-485
-1002
-991
-934
-563
40
123
73
-762
-1000
-932
-667
-564
-276
73
-9
-780
-608
-756
-1188
-1001
-504
41
606
182
-456
-699
-523
-976
-753
-299
649
713
57
-640
-541
-519
-761
-255
-142
189
500
70
-721
-808
-1366
-780
-94
451
390
-132
-1491
-1717
-1651
-1591
-180
432
346
-60
-998
-1644
-1880
-1913
-869
-345
46
253
-147
-1054
-1487
-1313
-1131
-717
-363
-778
-558
-565
-1346
-1802
-1474
-1147
-1125
-232
239
-481
-1434
-1799
-1847
-1791
-1410
-937
-683
-663
-1218
-1421
-1030
-130
1209
2799
3741
4394
4583
5118
5315
5223
4982
4943
4735
4105
3394
1664
-583
-2137
-1935
-1121
-793
-880
-940
-651
-882
-1025
-1488
-1450
-1081
-509
-627
-643
-609
-1378
-1957
-1599
-576
135
-116
-665
-994
-1320
-1177
-679
-721
-1057
-385
-249
-126
-762
-1349
-1633
-1019
-364
-160
419
79
-771
-997
-755
-743
-635
-632
-184
305
-50
-810
-922
-827
-748
-368
67
431
254
-1055
-973
-436
-632
-197
224
726
167
-348
-921
-748
-158
-42
458
989
441
333
145
-23
218
-37
-112
858
1560
1775
920
19
-183
229
497
1363
1456
1656
1038
980
603
365
211
927
1894
2106
1850
1218
816
800
823
831
1226
1681
2050
1211
1003
396
763
902
1367
1924
1531
1185
813
377
7
-45
768
1613
1038
977
324
-157
-32
-26
-297
-202
23
424
285
-2
-610
-1150
-955
-481
-215
-243
-270
-42
-497
-1161
-840
-626
260
219
-81
-203
-743
-1011
-990
-1558
-746
-32
43
93
-691
-1766
-1437
-1213
-608
-138
-67
626
394
-571
-1471
-1663
-1162
-285
58
-223
-439
-1135
-1284
-772
-682
-1010
-414
-198
-211
-328
-588
-671
-1158
-1367
-1127
-469
159
-8
-196
-875
-1311
-1183
-864
-271
179
511
-24
-709
-1210
-1325
-1090
-1051
-674
-235
46
-359
-945
-1275
-885
-758
-463
-296
-298
-52
-286
-1159
-957
-753
-260
-267
178
239
-217
-903
-1170
-1044
-909
-169
292
553
-314
-824
-1344
-1353
-1095
-454
130
385
42
55
-102
-771
-223
-394
-312
80
-43
-87
-390
-577
-1165
-1041
-143
377
-74
10
-368
-712
-806
-307
-670
-192
797
951
-30
-418
-745
-1241
-888
-208
430
476
151
108
-518
-1335
-1283
-753
-521
-560
407
255
-610
-87
-814
-1202
-382
277
345
251
-2
-654
-943
-555
-162
670
707
459
-208
-60
-32
-453
-40
524
578
451
464
-82
-599
-673
-281
126
529
561
280
393
-103
-724
-472
-44
93
422
689
315
-380
-486
-508
68
156
-509
420
15
-430
-627
-665
-577
-357
-215
192
77
-256
-446
-918
-923
-143
66
90
307
69
-734
-632
-487
-978
-803
-17
515
503
-239
-908
-1488
-1368
-397
-767
-819
-67
21
-502
-1098
-1158
-895
68
1235
1892
2423
3069
4157
4872
5486
6775
7740
7050
6696
6624
5160
3456
2105
984
307
-258
-14
194
-574
-743
-916
-1079
-1047
-365
79
-118
-147
-622
-1126
-1296
-1120
-855
-126
521
308
-166
-387
-617
-1023
-1188
-334
547
363
-11
-643
-1293
-1016
289
-95
99
466
464
362
-387
-1211
-587
-117
-280
114
518
-235
-782
-687
-1139
-1164
-113
203
887
995
82
-213
-577
-1252
-659
162
542
494
358
-132
-548
-801
-495
259
757
645
766
557
103
-454
-443
166
676
866
846
749
26
24
194
479
740
876
1537
1657
1195
936
-128
285
1358
2199
2168
1584
1685
1483
663
609
856
777
1706
2373
1965
1480
817
1194
1371
1070
1555
1976
1546
1367
1135
887
671
780
1179
1741
1395
773
583
-37
-824
-406
182
190
718
697
119
-418
-892
-817
-1005
-72
658
80
-272
-385
-608
-880
-1162
-799
-328
347
381
-146
-852
-1275
-1112
-740
-339
-211
17
-112
-637
-1489
-1670
-906
-301
-383
-363
-437
-890
-670
-1079
-1284
-1172
-519
-141
-125
-98
-563
-1356
-1066
-1094
-800
-36
70
-101
-488
-907
-822
-719
-956
-870
-53
226
311
-474
-1380
-1295
-803
-524
-78
-8
-88
-413
-1278
-1608
-1152
-281
-42
-208
-195
-267
-484
-524
-643
-1097
-981
-255
-56
-72
-147
-877
-1471
-1389
-1252
-733
-203
157
-187
-626
-1049
-1137
-692
-500
-281
-419
-411
-629
-1025
-1195
-1507
-518
25
166
594
-374
-693
-913
-1148
-952
-722
-264
-131
-381
-690
-1098
-1252
-752
-762
-510
201
153
-408
-705
-919
-1214
-779
-346
189
212
-66
-150
-561
-1178
-1389
-852
153
-112
-136
-50
-1296
-1736
-1698
-999
-261
-319
121
-337
-675
-781
-860
-829
115
-73
-109
76
-695
-1676
-1721
-967
-413
105
411
202
126
-269
-807
-1325
-1011
-89
242
-38
254
196
-365
-924
-1155
-178
526
492
411
8
-418
-1064
-1122
-593
-394
225
492
351
-251
-761
-837
-822
-824
228
273
-232
-384
-506
-1180
-1057
-971
-733
-480
-568
-338
-11
-378
-1023
-1025
-692
-461
-443
-487
-527
-765
-1324
-1360
-905
-313
-308
-740
-278
-427
-1476
-1709
-1218
-502
-427
-470
122
-223
-1403
-2141
-2010
-1675
-1524
-990
-668
-211
520
866
1757
2508
3394
4564
6258
7136
6350
5719
4943
4248
4571
4660
3834
2470
279
-715
-1298
-1576
-981
-654
-853
-588
-785
-965
-1177
-1595
-1956
-1661
-751
-336
-108
-181
-509
-986
-1114
-1547
-1289
-75
-124
-421
-509
-1044
-1339
-1590
-978
-177
397
203
-698
-730
-888
-1486
-1166
-169
185
285
-540
-446
-772
-989
-980
-888
-306
740
630
2
-61
-967
-1371
-561
18
527
499
-346
-707
-685
-363
-767
143
320
85
449
350
-639
-680
-707
-486
-44
891
1334
563
-233
-342
-460
-483
39
261
794
1524
1375
684
251
-170
85
1001
873
1016
1792
1044
64
368
763
1161
2048
2183
1918
1116
880
782
725
1202
1535
1840
1793
1554
1214
341
460
702
1251
1409
880
806
1017
712
-217
-401
342
664
801
1025
772
393
-684
-860
-523
-375
-56
114
105
402
-780
-1670
-1482
-1024
-237
222
217
-97
-573
-943
-963
-1210
-828
-91
-116
9
-393
-1359
-1656
-1092
-495
-316
-292
-187
169
-735
-1854
-1483
-786
-346
159
170
-222
-689
-848
-1178
-1321
-649
29
5
43
-192
-641
-950
-1218
-1029
-540
-311
-437
-146
-258
-1278
-1427
-1083
-730
-162
75
42
-412
-897
-956
-1152
-1041
-279
366
-331
-265
-625
-1233
-1510
-1669
-1416
-500
214
651
61
-851
-1462
-1429
-900
-823
-195
102
-94
-190
-581
-1658
-1033
-554
-86
304
-104
-439
-1121
-1257
-1031
-886
-193
430
-117
-599
-980
-1639
-1679
-965
-243
518
639
-442
-864
-1162
-1478
-1389
-708
-1047
-294
692
-516
-831
-666
-932
-1232
-517
22
-475
-619
-454
-613
-907
-622
-720
-479
-323
370
-203
-959
-1063
-1104
-989
-799
-227
302
-214
-887
-1452
-1184
-612
-468
-710
-213
-129
-637
-380
-671
-570
-763
-987
-453
57
-96
-172
-328
-1345
-1655
-900
23
495
-43
-764
-619
-942
-1025
-8
532
720
538
291
14
-290
-565
-908
-508
468
533
237
-80
-793
-930
-782
-952
-159
161
117
-380
-532
-878
-1542
-1325
-1015
-261
-184
-311
-411
-360
-951
-979
-154
1
-179
-525
-581
-460
-1253
-984
-903
-764
-579
-255
175
-124
-934
-1114
-655
-745
-766
-94
277
-378
-442
-932
-1633
-1171
-744
-770
-601
-839
-1396
-1776
-1561
-823
-186
1295
2146
3183
3959
4087
4648
5165
5898
6583
6275
5729
4858
3900
2809
1283
-7
-648
-1256
-669
-68
-454
-837
-1202
-1647
-1336
-1035
-573
-359
-472
-552
-1150
-1447
-1088
-580
-13
396
429
124
-152
-881
-1129
-599
174
285
337
552
135
-616
-1099
-991
16
866
814
727
223
-71
-236
-221
-99
274
1025
843
304
-22
-20
-401
-153
191
813
1922
1513
368
-182
-94
312
153
577
1123
1189
896
866
927
551
736
946
1098
1966
1905
1057
799
952
934
1435
2084
2519
2179
1735
1313
1298
1295
1445
1692
2208
2435
2724
2280
1344
1434
1887
2122
2608
3263
2627
2668
2842
2099
1781
1845
2112
2710
2871
3449
2672
2066
1996
1931
2122
3442
4075
3239
2698
2388
1723
1263
1599
1941
2682
3173
2820
2115
1297
737
873
1617
1971
2120
2166
1925
1631
861
633
1004
1608
1516
885
1058
905
911
934
911
880
994
1212
1815
1008
530
394
741
1336
1570
1009
1504
1734
1362
513
266
877
1424
1856
1799
1156
943
1016
751
729
776
1817
2460
2178
1459
1138
1107
1451
