-446
-654
-821
-810
-697
-663
-768
-900
-925
-864
-840
-912
-995
-985
-894
-858
-964
-1146
-1248
-1205
-1105
-1063
-1091
-1136
-1160
-1186
-1216
-1197
-1124
-1079
-1168
-1332
-1392
-1244
-1020
-991
-1209
-1462
-1496
-1304
-1111
-1099
-1222
-1304
-1237
-1091
-996
-1018
-1120
-1219
-1255
-1235
-1203
-1207
-1227
-1198
-1116
-1053
-1065
-1114
-1093
-1010
-983
-1106
-1290
-1344
-1238
-1136
-1186
-1330
-1382
-1289
-1184
-1216
-1338
-1381
-1283
-1160
-1150
-1231
-1267
-1202
-1114
-1116
-1207
-1289
-1292
-1241
-1201
-1215
-1260
-1278
-1237
-1163
-1131
-1193
-1291
-1327
-1276
-1233
-1293
-1414
-1442
-1316
-1169
-1180
-1341
-1459
-1410
-1297
-1299
-1425
-1517
-1473
-1383
-1399
-1501
-1550
-1464
-1364
-1395
-1550
-1639
-1536
-1338
-1243
-1327
-1484
-1560
-1507
-1411
-1379
-1439
-1550
-1637
-1648
-1586
-1494
-1430
-1422
-1433
-1426
-1405
-1418
-1494
-1585
-1619
-1568
-1479
-1431
-1455
-1504
-1473
-1336
-1173
-1136
-1294
-1537
-1645
-1534
-1340
-1282
-1454
-1691
-1732
-1504
-1204
-1083
-1207
-1431
-1543
-1482
-1371
-1359
-1484
-1646
-1717
-1655
-1520
-1423
-1420
-1461
-1466
-1418
-1375
-1384
-1418
-1413
-1364
-1351
-1421
-1511
-1517
-1433
-1370
-1423
-1510
-1501
-1408
-1367
-1460
-1548
-1447
-1188
-1028
-1139
-1397
-1514
-1378
-1176
-1150
-1316
-1460
-1408
-1209
-1050
-1044
-1115
-1128
-1036
-924
-910
-1028
-1183
-1230
-1121
-967
-932
-1065
-1247
-1301
-1201
-1082
-1088
-1223
-1391
-1517
-1595
-1639
-1641
-1628
-1650
-1725
-1804
-1801
-1714
-1616
-1568
-1574
-1594
-1591
-1568
-1531
-1472
-1433
-1461
-1556
-1641
-1648
-1589
-1539
-1562
-1653
-1722
-1684
-1534
-1359
-1300
-1416
-1585
-1613
-1440
-1206
-1127
-1246
-1402
-1433
-1305
-1123
-984
-891
-822
-754
-654
-475
-181
206
595
916
1124
1176
1042
725
241
-395
-1183
-2109
-3069
-3882
-4383
-4565
-4555
-4475
-4328
-4015
-3498
-2904
-2417
-2098
-1843
-1528
-1191
-1005
-1045
-1160
-1120
-910
-771
-921
-1272
-1480
-1335
-1004
-853
-1020
-1298
-1361
-1125
-826
-739
-914
-1149
-1233
-1116
-933
-844
-894
-991
-1017
-950
-885
-903
-980
-1016
-970
-907
-914
-980
-1022
-986
-923
-906
-939
-958
-930
-877
-818
-768
-739
-752
-801
-851
-859
-848
-885
-970
-1022
-954
-807
-720
-780
-902
-900
-711
-490
-458
-666
-893
-895
-666
-445
-483
-731
-902
-800
-536
-404
-526
-724
-755
-583
-410
-415
-538
-573
-452
-315
-306
-390
-419
-355
-339
-460
-617
-626
-490
-419
-550
-740
-728
-494
-314
-409
-659
-744
-577
-400
-478
-744
-896
-788
-595
-589
-809
-1056
-1153
-1121
-1107
-1162
-1209
-1196
-1183
-1255
-1385
-1463
-1465
-1473
-1583
-1750
-1838
-1792
-1722
-1763
-1887
-1926
-1808
-1666
-1702
-1922
-2107
-2085
-1950
-1919
-2079
-2264
-2265
-2079
-1897
-1878
-1974
-2028
-1973
-1895
-1912
-2024
-2113
-2071
-1922
-1799
-1784
-1834
-1846
-1767
-1671
-1647
-1712
-1813
-1884
-1890
-1817
-1683
-1560
-1524
-1570
-1585
-1447
-1228
-1125
-1253
-1502
-1623
-1534
-1381
-1363
-1481
-1547
-1435
-1216
-1081
-1127
-1252
-1297
-1228
-1146
-1158
-1251
-1295
-1225
-1091
-1022
-1055
-1102
-1082
-1017
-1000
-1039
-1059
-1015
-964
-985
-1054
-1061
-973
-888
-911
-1007
-1048
-974
-891
-924
-1035
-1079
-1007
-934
-982
-1104
-1145
-1066
-1006
-1074
-1194
-1188
-1026
-877
-883
-999
-1041
-942
-830
-845
-987
-1115
-1130
-1076
-1050
-1088
-1135
-1125
-1048
-954
-912
-957
-1044
-1083
-1043
-963
-943
-1038
-1188
-1255
-1161
-970
-846
-891
-1034
-1105
-1025
-894
-869
-979
-1103
-1118
-1033
-953
-926
-924
-927
-950
-991
-995
-947
-941
-1046
-1171
-1140
-950
-825
-920
-1093
-1075
-834
-641
-726
-971
-1075
-926
-745
-736
-853
-897
-812
-724
-722
-733
-674
-590
-604
-719
-814
-800
-746
-770
-858
-893
-826
-745
-755
-821
-815
-698
-574
-568
-663
-748
-775
-784
-808
-811
-752
-687
-716
-812
-819
-632
-376
-279
-423
-628
-662
-507
-353
-370
-537
-685
-691
-565
-419
-352
-375
-427
-422
-328
-198
-122
-162
-277
-354
-318
-202
-117
-148
-262
-337
-277
-128
-43
-123
-310
-450
-453
-359
-277
-293
-390
-505
-593
-644
-689
-757
-835
-909
-961
-1007
-1043
-1040
-975
-870
-786
-762
-776
-796
-805
-811
-811
-793
-780
-832
-949
-1037
-999
-858
-751
-779
-892
-924
-791
-565
-413
-421
-527
-595
-536
-383
-240
-181
-164
-94
91
361
670
1024
1460
1909
2197
2199
1976
1688
1393
918
92
-991
-2000
-2657
-2992
-3251
-3581
-3839
-3784
-3364
-2792
-2329
-2057
-1841
-1550
-1199
-917
-803
-818
-854
-850
-812
-772
-763
-799
-864
-927
-937
-884
-818
-781
-762
-728
-684
-677
-726
-766
-738
-666
-630
-631
-582
-444
-309
-301
-424
-538
-539
-457
-404
-448
-563
-674
-710
-632
-484
-381
-406
-495
-507
-402
-312
-355
-458
-441
-299
-244
-392
-572
-522
-254
-75
-187
-419
-455
-249
-55
-90
-261
-328
-234
-144
-182
-278
-288
-203
-137
-157
-217
-239
-207
-164
-126
-91
-44
-11
-16
-44
-55
-27
35
89
114
138
193
253
240
130
29
67
220
301
179
-40
-101
63
237
202
7
-99
-4
102
-16
-302
-466
-364
-186
-215
-462
-665
-635
-464
-394
-522
-717
-832
-862
-858
-846
-836
-875
-1011
-1185
-1275
-1257
-1263
-1418
-1637
-1699
-1515
-1270
-1234
-1457
-1711
-1753
-1602
-1501
-1648
-1973
-2210
-2174
-1962
-1825
-1917
-2113
-2161
-1992
-1798
-1813
-2012
-2144
-2059
-1888
-1875
-2043
-2138
-1972
-1705
-1651
-1878
-2093
-2019
-1742
-1600
-1748
-1972
-1972
-1747
-1587
-1672
-1843
-1838
-1655
-1523
-1608
-1763
-1746
-1551
-1407
-1473
-1623
-1648
-1511
-1370
-1339
-1357
-1324
-1264
-1285
-1381
-1404
-1286
-1169
-1247
-1478
-1612
-1475
-1190
-1051
-1173
-1375
-1412
-1251
-1068
-1027
-1115
-1207
-1232
-1213
-1169
-1130
-1083
-1060
-1081
-1136
-1182
-1191
-1186
-1159
-1124
-1120
-1194
-1341
-1453
-1435
-1326
-1285
-1413
-1608
-1682
-1574
-1425
-1393
-1475
-1551
-1558
-1549
-1567
-1578
-1545
-1527
-1589
-1684
-1703
-1612
-1519
-1529
-1585
-1557
-1421
-1323
-1376
-1510
-1566
-1480
-1394
-1449
-1617
-1726
-1657
-1487
-1395
-1451
-1553
-1534
-1371
-1199
-1167
-1265
-1352
-1338
-1284
-1289
-1351
-1392
-1377
-1367
-1414
-1456
-1395
-1266
-1216
-1309
-1424
-1381
-1199
-1073
-1125
-1281
-1377
-1342
-1266
-1254
-1305
-1335
-1284
-1195
-1153
-1194
-1262
-1261
-1175
-1111
-1170
-1305
-1343
-1195
-990
-948
-1121
-1299
-1251
-1011
-829
-887
-1082
-1201
-1146
-1020
-980
-1042
-1127
-1168
-1160
-1122
-1059
-1004
-1007
-1079
-1140
-1107
-992
-906
-929
-1034
-1119
-1110
-1033
-962
-933
-924
-919
-926
-936
-915
-850
-790
-815
-928
-1005
-953
-826
-765
-813
-855
-778
-621
-562
-687
-868
-934
-876
-805
-799
-821
-798
-740
-695
-647
-530
-373
-311
-433
-632
-711
-599
-440
-438
-594
-712
-642
-444
-311
-376
-544
-614
-512
-387
-436
-710
-1020
-1139
-1043
-923
-956
-1108
-1210
-1174
-1063
-1026
-1073
-1095
-1047
-989
-992
-1056
-1111
-1110
-1070
-1039
-1035
-1041
-1044
-1059
-1099
-1154
-1171
-1116
-1012
-966
-1054
-1214
-1271
-1103
-821
-676
-772
-923
-854
-536
-217
-104
-109
23
385
791
1072
1319
1688
2098
2262
2013
1513
1012
490
-260
-1261
-2241
-2947
-3433
-3891
-4268
-4242
-3682
-2928
-2484
-2441
-2385
-1933
-1216
-722
-714
-1000
-1193
-1130
-942
-818
-801
-838
-895
-971
-1039
-1042
-940
-795
-705
-698
-747
-788
-774
-715
-640
-601
-626
-698
-737
-678
-553
-474
-518
-630
-686
-633
-551
-555
-649
-728
-701
-602
-530
-549
-614
-628
-527
-378
-302
-363
-491
-549
-464
-336
-323
-463
-605
-575
-385
-238
-266
-395
-434
-342
-255
-293
-393
-401
-301
-215
-239
-300
-262
-132
-57
-122
-224
-209
-93
-59
-196
-358
-329
-97
121
124
-26
-99
9
155
140
-27
-146
-79
87
136
40
-32
65
245
297
164
17
19
93
48
-156
-328
-286
-98
-7
-121
-302
-344
-243
-182
-302
-540
-701
-664
-529
-515
-707
-951
-1002
-802
-587
-640
-960
-1230
-1197
-961
-856
-1054
-1361
-1488
-1413
-1353
-1429
-1542
-1560
-1551
-1663
-1864
-1942
-1800
-1619
-1640
-1845
-1974
-1869
-1675
-1664
-1861
-2027
-1962
-1768
-1697
-1834
-2007
-2004
-1860
-1778
-1879
-2032
-2037
-1865
-1702
-1732
-1902
-1988
-1855
-1612
-1484
-1566
-1741
-1804
-1697
-1556
-1539
-1643
-1722
-1668
-1544
-1472
-1478
-1469
-1378
-1288
-1320
-1454
-1525
-1436
-1311
-1336
-1499
-1591
-1481
-1279
-1207
-1317
-1447
-1439
-1328
-1247
-1253
-1284
-1275
-1247
-1230
-1199
-1123
-1043
-1045
-1151
-1266
-1295
-1238
-1177
-1185
-1231
-1226
-1120
-962
-875
-911
-989
-994
-926
-916
-1058
-1262
-1329
-1203
-1057
-1085
-1256
-1344
-1225
-1026
-968
-1089
-1212
-1179
-1064
-1029
-1113
-1185
-1151
-1077
-1111
-1256
-1358
-1287
-1114
-1040
-1152
-1322
-1357
-1199
-1010
-965
-1073
-1190
-1197
-1121
-1083
-1133
-1199
-1197
-1131
-1099
-1165
-1274
-1303
-1212
-1083
-1055
-1170
-1324
-1366
-1250
-1086
-1018
-1068
-1106
-1056
-982
-994
-1087
-1127
-1060
-1023
-1161
-1416
-1512
-1301
-955
-812
-998
-1291
-1383
-1224
-1034
-1019
-1172
-1333
-1399
-1379
-1329
-1274
-1217
-1175
-1172
-1220
-1286
-1324
-1319
-1285
-1240
-1223
-1236
-1272
-1300
-1284
-1207
-1095
-1020
-1046
-1159
-1287
-1326
-1257
-1147
-1075
-1076
-1147
-1253
-1329
-1288
-1109
-913
-881
-1077
-1342
-1431
-1272
-1065
-1060
-1269
-1461
-1444
-1282
-1188
-1240
-1315
-1279
-1162
-1124
-1220
-1338
-1343
-1249
-1177
-1210
-1318
-1410
-1409
-1329
-1238
-1207
-1248
-1308
-1322
-1288
-1263
-1304
-1380
-1402
-1356
-1299
-1286
-1282
-1212
-1084
-997
-1021
-1107
-1136
-1062
-982
-1000
-1138
-1313
-1413
-1390
-1291
-1218
-1224
-1294
-1382
-1473
-1568
-1645
-1660
-1626
-1635
-1775
-1988
-2101
-2022
-1866
-1822
-1951
-2138
-2250
-2251
-2191
-2135
-2106
-2122
-2193
-2254
-2206
-2036
-1883
-1895
-2048
-2170
-2143
-2054
-2077
-2230
-2360
-2332
-2205
-2124
-2137
-2158
-2109
-2023
-1985
-1990
-1960
-1830
-1643
-1516
-1489
-1462
-1312
-1020
-688
-407
-122
285
777
1118
1088
748
343
-28
-552
-1435
-2586
-3641
-4343
-4766
-5117
-5428
-5514
-5262
-4787
-4295
-3884
-3513
-3149
-2829
-2608
-2478
-2428
-2460
-2521
-2524
-2452
-2403
-2499
-2692
-2793
-2711
-2575
-2559
-2662
-2703
-2592
-2424
-2350
-2400
-2459
-2450
-2417
-2447
-2531
-2587
-2578
-2553
-2582
-2675
-2759
-2771
-2714
-2634
-2583
-2560
-2553
-2549
-2554
-2562
-2541
-2508
-2524
-2614
-2725
-2737
-2614
-2485
-2514
-2700
-2847
-2804
-2625
-2498
-2540
-2666
-2715
-2646
-2550
-2529
-2586
-2648
-2651
-2562
-2440
-2377
-2419
-2515
-2540
-2450
-2328
-2284
-2341
-2420
-2466
-2477
-2448
-2351
-2223
-2204
-2387
-2649
-2731
-2530
-2260
-2225
-2465
-2738
-2787
-2646
-2516
-2520
-2593
-2622
-2633
-2705
-2835
-2934
-2949
-2927
-2957
-3065
-3206
-3326
-3396
-3408
-3372
-3327
-3324
-3366
-3409
-3403
-3387
-3440
-3607
-3840
-4031
-4124
-4152
-4212
-4372
-4593
-4759
-4773
-4669
-4624
-4759
-5034
-5262
-5325
-5299
-5331
-5472
-5643
-5747
-5795
-5834
-5881
-5898
-5892
-5939
-6097
-6321
-6478
-6486
-6398
-6359
-6464
-6664
-6788
-6746
-6643
-6690
-6954
-7249
-7305
-7084
-6852
-6882
-7148
-7333
-7217
-6920
-6752
-6873
-7137
-7295
-7263
-7168
-7150
-7226
-7322
-7358
-7317
-7215
-7095
-7024
-7046
-7139
-7224
-7229
-7148
-7033
-6965
-6992
-7100
-7208
-7218
-7103
-6955
-6913
-7014
-7156
-7186
-7079
-6960
-6946
-7038
-7135
-7161
-7153
-7180
-7241
-7277
-7259
-7222
-7216
-7245
-7270
-7260
-7234
-7220
-7206
-7170
-7115
-7091
-7137
-7222
-7259
-7209
-7151
-7200
-7372
-7541
-7583
-7495
-7394
-7380
-7427
-7436
-7377
-7323
-7340
-7401
-7407
-7352
-7340
-7454
-7594
-7585
-7399
-7233
-7303
-7584
-7779
-7663
-7373
-7251
-7447
-7737
-7763
-7476
-7191
-7196
-7434
-7591
-7507
-7337
-7342
-7521
-7627
-7498
-7259
-7157
-7232
-7288
-7166
-6964
-6905
-7049
-7206
-7168
-6975
-6873
-7032
-7317
-7437
-7266
-6980
-6857
-6967
-7146
-7202
-7108
-7005
-6965
-6924
-6825
-6737
-6769
-6911
-6994
-6909
-6763
-6761
-6931
-7113
-7162
-7094
-7022
-6960
-6837
-6645
-6512
-6541
-6642
-6647
-6514
-6390
-6418
-6584
-6722
-6744
-6686
-6625
-6585
-6527
-6446
-6417
-6481
-6577
-6573
-6427
-6248
-6201
-6305
-6396
-6310
-6086
-5940
-5989
-6124
-6153
-6051
-5976
-6048
-6167
-6160
-6006
-5867
-5849
-5868
-5803
-5660
-5571
-5601
-5678
-5691
-5656
-5655
-5698
-5725
-5698
-5650
-5637
-5612
-5525
-5439
-5468
-5619
-5736
-5652
-5431
-5326
-5473
-5725
-5803
-5646
-5434
-5390
-5504
-5601
-5589
-5569
-5647
-5769
-5800
-5704
-5608
-5621
-5716
-5784
-5802
-5804
-5806
-5804
-5842
-6005
-6277
-6478
-6465
-6327
-6316
-6543
-6812
-6859
-6703
-6614
-6768
-7027
-7119
-6989
-6830
-6840
-6969
-7055
-7013
-6894
-6778
-6670
-6575
-6557
-6668
-6824
-6863
-6733
-6572
-6555
-6708
-6855
-6844
-6701
-6579
-6587
-6663
-6659
-6506
-6289
-6137
-6083
-6042
-5930
-5769
-5636
-5562
-5491
-5329
-5038
-4675
-4353
-4176
-4209
-4459
-4869
-5358
-5892
-6541
-7376
-8298
-9043
-9388
-9377
-9247
-9148
-8992
-8614
-8027
-7442
-7026
-6739
-6430
-6097
-5881
-5857
-5899
-5813
-5576
-5377
-5386
-5560
-5707
-5693
-5551
-5423
-5383
-5383
-5334
-5215
-5098
-5057
-5084
-5119
-5127
-5114
-5085
-5027
-4924
-4821
-4791
-4841
-4873
-4819
-4730
-4733
-4850
-4957
-4939
-4827
-4731
-4713
-4725
-4711
-4683
-4691
-4698
-4618
-4469
-4388
-4462
-4609
-4633
-4466
-4249
-4151
-4180
-4210
-4144
-4047
-4017
-4072
-4138
-4144
-4100
-4067
-4083
-4120
-4109
-4013
-3862
-3746
-3713
-3708
-3621
-3430
-3277
-3298
-3437
-3490
-3355
-3206
-3271
-3504
-3607
-3408
-3102
-3037
-3245
-3409
-3274
-2990
-2901
-3089
-3265
-3181
-2945
-2894
-3144
-3454
-3536
-3399
-3302
-3424
-3675
-3846
-3855
-3814
-3840
-3928
-3992
-3991
-3979
-4012
-4091
-4169
-4224
-4287
-4387
-4504
-4587
-4624
-4656
-4725
-4833
-4938
-5002
-5029
-5036
-5050
-5104
-5217
-5331
-5345
-5248
-5164
-5237
-5436
-5591
-5598
-5533
-5520
-5562
-5565
-5531
-5576
-5736
-5845
-5735
-5485
-5361
-5490
-5684
-5671
-5446
-5253
-5258
-5364
-5399
-5323
-5270
-5310
-5379
-5391
-5347
-5314
-5311
-5305
-5270
-5212
-5144
-5058
-4972
-4924
-4914
-4896
-4838
-4797
-4827
-4887
-4892
-4808
-4702
-4663
-4687
-4693
-4625
-4508
-4378
-4255
-4189
-4225
-4326
-4374
-4280
-4089
-3978
-4057
-4238
-4328
-4215
-3960
-3712
-3561
-3488
-3384
-3149
-2790
-2423
-2201
-2152
-2174
-2128
-2016
-1944
-2009
-2138
-2162
-2010
-1793
-1684
-1707
-1718
-1616
-1470
-1443
-1571
-1714
-1724
-1659
-1674
-1813
-1949
-1909
-1707
-1550
-1596
-1779
-1878
-1753
-1510
-1395
-1522
-1754
-1837
-1685
-1470
-1428
-1570
-1713
-1700
-1591
-1541
-1599
-1670
-1683
-1693
-1762
-1835
-1838
-1810
-1863
-2010
-2102
-2019
-1870
-1834
-1928
-1985
-1863
-1653
-1541
-1566
-1632
-1650
-1627
-1604
-1586
-1576
-1607
-1676
-1697
-1603
-1464
-1414
-1505
-1610
-1592
-1471
-1373
-1364
-1401
-1427
-1443
-1451
-1422
-1354
-1333
-1439
-1593
-1629
-1516
-1392
-1397
-1498
-1546
-1502
-1475
-1505
-1522
-1452
-1365
-1383
-1468
-1467
-1338
-1227
-1279
-1439
-1528
-1474
-1387
-1386
-1447
-1479
-1443
-1371
-1293
-1187
-1054
-984
-1049
-1191
-1258
-1159
-979
-897
-996
-1159
-1164
-923
-590
-435
-549
-723
-713
-509
-351
-422
-609
-689
-591
-458
-424
-437
-383
-286
-279
-406
-543
-593
-614
-701
-846
-928
-900
-853
-871
-929
-951
-940
-948
-989
-1017
-1020
-1040
-1110
-1188
-1209
-1184
-1187
-1233
-1267
-1264
-1266
-1308
-1330
-1255
-1170
-1221
-1416
-1566
-1491
-1260
-1147
-1279
-1505
-1559
-1372
-1146
-1046
-1051
-1028
-920
-780
-678
-595
-490
-362
-222
-13
325
717
949
849
459
-7
-398
-771
-1314
-2128
-3059
-3809
-4178
-4196
-4032
-3851
-3672
-3379
-2878
-2219
-1553
-1050
-751
-564
-375
-158
-4
8
-78
-146
-118
-27
9
-52
-126
-94
64
270
428
485
464
418
394
433
502
537
513
452
417
457
538
608
635
638
639
659
709
774
838
886
907
907
887
864
866
897
944
956
911
852
854
948
1084
1172
1154
1060
992
1016
1129
1267
1360
1371
1318
1252
1224
1262
1343
1420
1434
1378
1308
1314
1428
1573
1640
1583
1485
1462
1528
1598
1581
1494
1457
1520
1609
1625
1581
1592
1733
1924
1983
1875
1734
1700
1753
1766
1704
1661
1711
1771
1716
1578
1535
1682
1866
1859
1632
1407
1396
1551
1627
1459
1161
959
951
1041
1066
980
852
740
639
532
458
448
441
330
95
-97
-87
99
224
107
-154
-282
-147
51
43
-196
-426
-440
-315
-271
-381
-491
-451
-330
-312
-426
-507
-439
-298
-268
-384
-476
-407
-253
-196
-292
-396
-373
-242
-132
-148
-259
-338
-284
-101
90
126
-42
-245
-231
77
413
443
141
-154
-108
238
519
466
190
29
144
386
523
511
466
504
598
650
652
662
706
759
751
695
663
700
773
818
829
873
998
1145
1210
1165
1091
1083
1133
1150
1102
1049
1053
1098
1119
1126
1192
1314
1386
1328
1206
1174
1279
1395
1371
1254
1221
1349
1507
1517
1355
1212
1229
1328
1321
1183
1102
1243
1510
1644
1539
1377
1397
1584
1691
1532
1248
1125
1257
1468
1536
1465
1412
1462
1541
1545
1499
1522
1645
1762
1752
1629
1516
1535
1672
1782
1743
1574
1416
1393
1474
1550
1546
1515
1551
1665
1761
1753
1680
1654
1732
1835
1849
1742
1605
1572
1687
1868
1966
1932
1835
1798
1860
1947
1960
1894
1835
1848
1879
1868
1833
1841
1912
1957
1921
1876
1910
1992
1977
1841
1749
1863
2091
2169
1996
1772
1782
2035
2241
2168
1915
1776
1895
2113
2187
2082
1959
1968
2087
2174
2154
2078
2050
2115
2212
2277
2275
2248
2251
2285
2304
2279
2241
2259
2350
2413
2348
2192
2111
2231
2467
2585
2478
2295
2283
2513
2792
2880
2750
2582
2547
2639
2716
2715
2696
2734
2815
2853
2820
2785
2818
2888
2905
2836
2729
2656
2598
2505
2381
2290
2262
2235
2159
2063
2028
2078
2144
2151
2145
2206
2326
2390
2314
2178
2129
2211
2299
2246
2070
1934
1969
2126
2238
2202
2060
1946
1939
1982
1965
1854
1733
1712
1808
1930
1987
2018
2140
2372
2579
2629
2570
2585
2795
3104
3383
3614
3869
4094
4087
3710
3105
2544
2099
1555
694
-366
-1200
-1496
-1331
-1023
-792
-555
-148
437
1035
1503
1835
2077
2242
2298
2260
2227
2273
2374
2469
2525
2525
2463
2352
2265
2320
2517
2725
2807
2784
2769
2809
2835
2801
2782
2841
2921
2867
2658
2478
2509
2697
2834
2793
2674
2663
2807
2999
3094
3064
2979
2918
2908
2903
2852
2765
2720
2765
2869
2914
2856
2784
2816
2945
3046
3042
3000
3042
3157
3197
3104
3000
3056
3234
3311
3151
2881
2758
2895
3150
3299
3276
3185
3182
3315
3504
3611
3564
3409
3305
3352
3488
3536
3400
3200
3166
3392
3692
3795
3621
3367
3298
3466
3701
3771
3616
3390
3283
3352
3497
3570
3506
3373
3274
3262
3292
3274
3181
3061
2976
2928
2875
2805
2741
2699
2674
2634
2579
2537
2484
2374
2216
2105
2111
2194
2189
2009
1762
1639
1688
1754
1685
1488
1319
1272
1283
1247
1162
1127
1193
1264
1232
1121
1075
1172
1317
1349
1236
1118
1115
1191
1207
1110
995
987
1060
1089
1013
909
900
1033
1218
1334
1320
1227
1154
1182
1280
1326
1269
1181
1205
1367
1518
1501
1353
1258
1336
1493
1537
1397
1191
1090
1165
1345
1504
1561
1515
1430
1384
1423
1492
1521
1486
1424
1416
1481
1580
1657
1697
1726
1755
1768
1731
1650
1603
1656
1786
1893
1905
1852
1828
1872
1913
1877
1803
1777
1818
1835
1769
1682
1699
1810
1867
1773
1626
1608
1759
1931
1957
1851
1786
1838
1923
1910
1819
1780
1844
1893
1808
1652
1619
1773
1960
1988
1850
1740
1804
1960
2011
1896
1751
1733
1836
1921
1883
1772
1709
1746
1823
1856
1802
1731
1731
1826
1942
1969
1888
1773
1729
1751
1757
1716
1721
1851
2043
2103
1961
1789
1804
2003
2139
2011
1709
1517
1596
1798
1875
1745
1559
1528
1681
1860
1920
1852
1777
1805
1900
1969
1928
1824
1767
1817
1919
1973
1947
1880
1834
1825
1832
1845
1874
1907
1913
1868
1802
1782
1815
1857
1869
1857
1875
1950
2039
2073
2044
2010
2034
2110
2174
2124
1989
1878
1877
1965
2029
2006
1957
1974
2059
2119
2098
2053
2055
2075
2036
1933
1880
1966
2144
2284
2300
2226
2153
2156
2253
2369
2403
2280
2058
1934
2048
2316
2505
2473
2328
2278
2397
2535
2571
2531
2518
2546
2537
2469
2428
2488
2594
2615
2501
2357
2302
2323
2326
2266
2200
2187
2223
2233
2177
2090
2034
2023
2029
1991
1876
1735
1666
1720
1837
1899
1857
1793
1810
1910
1978
1923
1818
1794
1860
1902
1827
1696
1646
1702
1741
1661
1507
1411
1438
1518
1554
1542
1563
1673
1856
2043
2177
2260
2327
2418
2548
2709
2896
3130
3443
3757
3904
3742
3300
2764
2270
1764
1088
196
-725
-1380
-1646
-1626
-1482
-1275
-941
-436
150
664
1058
1426
1857
2283
2491
2375
2108
2005
2192
2442
2450
2183
1903
1861
2035
2212
2296
2353
2467
2586
2604
2533
2484
2520
2581
2577
2510
2453
2438
2451
2466
2464
2453
2425
2395
2407
2469
2521
2497
2451
2514
2707
2858
2796
2574
2442
2556
2767
2794
2600
2446
2568
2871
3023
2871
2655
2681
2946
3118
2966
2659
2525
2661
2863
2925
2906
2962
3083
3113
2991
2885
2966
3138
3152
2943
2751
2848
3188
3452
3423
3220
3132
3261
3421
3397
3224
3130
3253
3467
3548
3451
3347
3399
3561
3624
3476
3247
3124
3173
3263
3248
3145
3071
3100
3191
3240
3197
3083
2921
2752
2613
2526
2483
2435
2351
2251
2179
2157
2172
2210
2237
2203
2082
1909
1784
1791
1855
1802
1594
1371
1313
1418
1503
1437
1303
1235
1251
1249
1190
1146
1155
1131
1009
865
822
885
899
792
686
743
922
1019
933
797
786
900
981
927
799
728
770
884
992
1045
1036
983
946
977
1052
1111
1101
1027
941
910
971
1075
1133
1078
959
908
994
1128
1141
998
863
917
1150
1358
1349
1141
943
953
1158
1346
1335
1166
1033
1081
1258
1394
1401
1348
1334
1362
1366
1343
1350
1409
1447
1400
1295
1257
1358
1527
1635
1628
1550
1482
1479
1526
1562
1526
1415
1319
1343
1486
1620
1625
1506
1423
1499
1675
1764
1669
1504
1457
1551
1639
1594
1477
1464
1605
1727
1662
1446
1327
1433
1651
1692
1474
1209
1182
1425
1666
1637
1362
1127
1169
1423
1622
1590
1409
1294
1337
1447
1490
1454
1432
1484
1546
1521
1428
1388
1490
1653
1688
1536
1358
1366
1572
1751
1705
1465
1272
1281
1434
1543
1547
1517
1528
1574
1596
1591
1597
1608
1583
1499
1383
1296
1286
1355
1452
1501
1473
1426
1462
1588
1688
1658
1552
1524
1603
1673
1638
1551
1560
1678
1744
1654
1518
1514
1644
1732
1678
1577
1573
1655
1691
1655
1637
1683
1723
1663
1567
1571
1668
1696
1566
1405
1411
1574
1698
1647
1526
1537
1713
1890
1922
1850
1813
1845
1864
1805
1718
1708
1797
1887
1913
1892
1894
1926
1943
1942
1967
2014
2005
1891
1770
1803
2027
2267
2313
2173
2044
2088
2242
2309
2248
2178
2194
2226
2173
2085
2122
2317
2496
2451
2203
1999
2033
2234
2336
2156
1798
1520
1498
1660
1785
1702
1479
1309
1317
1444
1543
1557
1534
1523
1491
1418
1385
1489
1662
1706
1544
1342
1340
1543
1693
1579
1316
1203
1330
1478
1429
1229
1117
1209
1362
1394
1300
1246
1365
1596
1787
1862
1910
2024
2201
2371
2491
2631
2888
3224
3435
3334
2931
2400
1875
1326
639
-189
-998
-1630
-2025
-2177
-2079
-1742
-1271
-814
-423
-22
471
1000
1390
1541
1524
1499
1553
1645
1698
1700
1698
1723
1749
1735
1675
1629
1667
1771
1853
1837
1763
1728
1779
1866
1916
1923
1931
1940
1912
1849
1820
1848
1853
1737
1564
1525
1712
1965
2051
1940
1854
1960
2153
2189
2004
1807
1815
2001
2130
2060
1914
1902
2054
2196
2190
2067
1977
1988
2041
2074
2101
2158
2224
2228
2156
2092
2117
2200
2233
2172
2076
2042
2109
2219
2313
2381
2413
2407
2389
2399
2443
2472
2440
2374
2352
2409
2495
2536
2550
2588
2651
2661
2580
2468
2426
2472
2516
2460
2316
2181
2137
2172
2208
2177
2081
1969
1904
1922
1993
2027
1949
1792
1644
1587
1565
1464
1265
1090
1074
1164
1168
988
776
750
898
956
735
385
232
356
493
364
35
-169
-57
181
217
-17
-278
-325
-183
-66
-102
-237
-355
-395
-375
-324
-251
-191
-204
-303
-437
-502
-442
-309
-210
-219
-329
-470
-550
-523
-442
-395
-438
-549
-633
-620
-507
-345
-204
-141
-157
-205
-242
-247
-234
-240
-299
-393
-466
-465
-389
-295
-214
-174
-153
-116
-65
-30
-65
-167
-263
-270
-176
-76
-92
-240
-394
-390
-227
-71
-77
-213
-293
-216
-76
-13
-41
-36
58
142
91
-50
-109
-12
105
69
-82
-153
-27
175
240
119
-23
-7
153
268
202
14
-106
-53
92
161
85
-33
-58
51
184
201
96
-22
-48
8
45
-2
-77
-103
-44
41
66
19
-44
-62
-20
49
86
44
-68
-157
-114
31
112
-14
-246
-328
-136
126
138
-141
-382
-282
58
265
122
-181
-314
-186
-17
-7
-109
-146
-59
13
-24
-121
-149
-82
-25
-67
-172
-228
-197
-132
-94
-98
-119
-142
-147
-107
-23
38
-13
-154
-246
-192
-54
-6
-99
-204
-173
-43
22
-32
-92
-43
61
54
-117
-290
-290
-152
-56
-112
-247
-301
-222
-95
-16
-2
-24
-91
-215
-343
-371
-280
-178
-180
-256
-269
-174
-99
-147
-240
-204
-51
-1
-190
-457
-508
-306
-116
-156
-339
-417
-312
-211
-266
-369
-333
-173
-78
-155
-272
-272
-183
-160
-255
-328
-262
-142
-144
-275
-352
-231
-12
90
-1
-128
-111
44
155
104
-13
-44
37
84
-28
-223
-300
-179
-19
-23
-204
-352
-301
-107
8
-85
-288
-425
-443
-450
-541
-688
-757
-692
-593
-605
-754
-878
-821
-625
-506
-597
-782
-827
-672
-486
-461
-563
-620
-577
-569
-708
-902
-977
-935
-929
-1048
-1165
-1115
-933
-823
-892
-1002
-981
-841
-727
-702
-678
-557
-381
-246
-154
-28
165
358
534
760
1061
1254
1099
595
9
-424
-808
-1461
-2460
-3472
-4080
-4203
-4119
-4081
-4013
-3702
-3107
-2442
-1943
-1633
-1366
-1032
-709
-556
-627
-794
-850
-714
-500
-424
-580
-817
-894
-726
-460
-315
-359
-475
-511
-451
-394
-388
-412
-418
-414
-429
-436
-391
-287
-203
-207
-290
-358
-346
-275
-209
-191
-212
-239
-233
-174
-82
-35
-98
-244
-360
-360
-277
-239
-303
-386
-347
-186
-28
3
-57
-80
-14
52
16
-91
-131
-30
105
131
36
-30
58
246
353
299
191
179
288
397
407
347
324
387
476
494
416
307
263
322
440
531
545
506
502
574
673
705
642
554
498
473
436
367
295
280
334
421
478
458
366
261
214
230
235
128
-97
-322
-424
-390
-351
-429
-588
-711
-728
-679
-648
-662
-713
-799
-934
-1101
-1230
-1262
-1223
-1229
-1361
-1554
-1661
-1579
-1376
-1264
-1394
-1674
-1836
-1715
-1468
-1411
-1658
-1976
-2053
-1859
-1659
-1678
-1841
-1901
-1793
-1685
-1731
-1869
-1933
-1882
-1847
-1943
-2095
-2135
-2024
-1877
-1816
-1849
-1882
-1836
-1725
-1624
-1590
-1607
-1616
-1582
-1522
-1463
-1426
-1396
-1363
-1317
-1278
-1284
-1371
-1520
-1633
-1580
-1350
-1126
-1117
-1304
-1437
-1325
-1067
-944
-1091
-1340
-1435
-1330
-1207
-1188
-1205
-1155
-1067
-1054
-1146
-1234
-1204
-1107
-1081
-1154
-1222
-1179
-1078
-1027
-1038
-1010
-880
-741
-738
-878
-1001
-940
-746
-635
-726
-907
-965
-852
-716
-726
-855
-915
-828
-675
-625
-686
-735
-684
-588
-585
-718
-891
-962
-901
-805
-786
-885
-1010
-1030
-894
-694
-592
-661
-811
-873
-778
-619
-542
-590
-678
-700
-658
-623
-622
-611
-575
-576
-652
-734
-706
-586
-511
-587
-719
-727
-605
-514
-590
-752
-812
-706
-558
-511
-570
-632
-614
-535
-451
-421
-465
-555
-616
-592
-524
-496
-531
-549
-489
-418
-450
-587
-676
-621
-488
-439
-526
-641
-660
-587
-528
-545
-591
-591
-554
-534
-546
-553
-517
-444
-378
-344
-338
-345
-361
-382
-367
-289
-190
-170
-268
-394
-402
-263
-102
-61
-139
-219
-202
-115
-22
67
174
273
286
198
115
155
292
361
262
56
-82
-61
60
144
123
53
5
-1
5
10
-8
-63
-162
-254
-280
-233
-183
-201
-248
-244
-171
-119
-157
-236
-265
-235
-230
-282
-302
-212
-74
-48
-157
-262
-229
-122
-144
-380
-676
-798
-681
-494
-438
-519
-584
-462
-158
159
298
245
172
269
519
697
675
591
749
1245
1798
2014
1784
1333
945
625
177
-541
-1444
-2323
-3009
-3424
-3532
-3357
-3046
-2770
-2565
-2289
-1799
-1174
-656
-421
-401
-371
-215
10
169
209
188
178
221
283
298
228
138
145
298
503
593
498
351
336
491
656
670
543
423
449
612
766
786
670
537
513
619
754
814
781
748
791
864
875
816
794
898
1042
1059
913
783
885
1187
1392
1291
1017
887
1057
1351
1469
1320
1089
1004
1105
1264
1351
1333
1260
1226
1288
1409
1494
1463
1354
1299
1379
1520
1564
1454
1313
1311
1478
1682
1766
1676
1525
1482
1628
1859
1979
1896
1746
1741
1916
2069
2010
1811
1706
1782
1873
1787
1568
1460
1589
1796
1832
1632
1406
1346
1414
1426
1284
1105
1068
1163
1196
1030
775
664
764
877
777
479
210
138
234
322
287
154
-18
-162
-229
-209
-178
-245
-427
-572
-533
-349
-231
-311
-487
-584
-561
-539
-607
-729
-811
-830
-818
-798
-767
-746
-770
-831
-866
-848
-852
-923
-1011
-1002
-859
-721
-723
-838
-902
-810
-631
-518
-535
-623
-687
-665
-561
-424
-335
-382
-551
-687
-631
-399
-194
-208
-382
-494
-402
-202
-123
-250
-449
-541
-488
-390
-366
-424
-495
-498
-401
-266
-191
-245
-369
-419
-312
-142
-79
-178
-288
-247
-70
83
104
22
-56
-80
-73
-55
-2
66
97
33
-76
-114
-38
89
144
83
-19
-38
66
205
260
188
76
40
110
184
157
32
-89
-124
-56
51
144
183
139
61
41
138
280
308
147
-60
-105
45
220
227
85
-26
6
115
145
69
-2
36
142
195
157
101
135
256
348
314
178
52
27
103
194
208
153
116
166
265
307
254
185
196
250
252
185
160
259
405
429
308
196
231
342
351
224
128
203
380
473
418
360
426
568
629
540
398
344
404
506
586
614
592
547
525
565
633
655
608
559
598
718
836
895
914
914
913
896
876
878
881
848
801
808
914
1042
1055
925
796
824
976
1065
948
683
468
429
507
557
506
395
320
318
363
407
420
411
392
374
380
421
489
531
510
441
396
413
429
368
251
199
287
400
362
170
38
134
357
447
310
153
239
538
781
804
749
862
1151
1389
1455
1492
1716
2111
2416
2425
2212
1964
1731
1342
664
-207
-1034
-1680
-2179
-2584
-2837
-2785
-2410
-1901
-1473
-1165
-820
-324
213
555
616
557
611
822
1029
1088
1036
1012
1066
1113
1082
1011
1006
1071
1109
1078
1076
1186
1342
1379
1261
1146
1202
1384
1498
1435
1324
1355
1505
1557
1426
1262
1293
1506
1638
1526
1329
1340
1621
1880
1826
1511
1273
1339
1582
1713
1621
1469
1433
1507
1603
1665
1726
1789
1794
1716
1627
1630
1711
1768
1762
1779
1888
2012
2017
1908
1864
1994
2192
2233
2064
1893
1933
2151
2329
2316
2196
2112
2097
2072
2021
2055
2221
2383
2365
2205
2158
2358
2645
2725
2523
2295
2296
2463
2505
2313
2082
2049
2175
2234
2111
1955
1955
2069
2084
1942
1800
1808
1905
1908
1738
1519
1419
1443
1466
1379
1208
1077
1062
1127
1143
988
700
458
428
563
630
462
166
16
145
390
464
294
63
-17
51
120
82
-16
-62
-27
0
-40
-107
-112
-41
36
33
-67
-192
-263
-254
-186
-111
-54
-27
-15
2
31
60
59
16
-57
-127
-186
-236
-267
-260
-208
-123
-29
58
134
182
196
184
188
225
259
221
111
15
48
203
348
367
312
330
446
528
462
313
266
372
465
385
191
107
240
445
516
440
361
377
440
455
421
380
351
304
250
242
327
456
549
586
585
564
517
471
487
582
667
632
492
387
433
585
696
677
568
489
497
562
609
588
515
436
392
407
458
478
446
380
359
432
565
657
627
512
448
555
765
883
762
503
343
402
557
601
509
441
517
632
616
490
446
589
767
746
519
345
412
594
640
502
384
465
651
687
520
391
510
786
924
792
558
476
591
725
721
620
549
554
593
609
613
628
639
621
594
591
607
618
601
574
594
679
769
781
686
559
518
606
727
767
744
750
834
926
921
844
801
833
872
847
799
825
958
1141
1314
1429
1457
1388
1264
1183
1187
1206
1150
1041
969
1000
1089
1154
1190
1233
1273
1268
1223
1179
1139
1039
867
702
657
686
648
495
353
359
495
614
638
657
766
894
903
794
713
757
820
732
496
329
376
531
555
413
286
331
473
500
364
231
243
337
356
279
263
409
632
773
819
883
1037
1190
1238
1236
1358
1694
2111
2403
2482
2409
2227
1898
1390
753
88
-569
-1299
-2085
-2718
-2944
-2741
-2367
-2087
-1897
-1562
-950
-235
284
488
539
656
844
960
919
830
869
1042
1170
1099
887
779
940
1249
1415
1296
1072
1024
1205
1361
1251
994
914
1137
1425
1457
1229
1053
1141
1387
1515
1431
1300
1291
1394
1469
1457
1407
1372
1356
1345
1371
1457
1563
1607
1550
1442
1388
1424
1498
1523
1471
1406
1422
1542
1688
1753
1718
1662
1653
1673
1649
1580
1556
1614
1706
1732
1709
1735
1856
1985
2002
1935
1919
2005
2075
2007
1863
1839
2011
2198
2167
1934
1768
1863
2099
2209
2092
1932
1957
2137
2252
2168
2006
1970
2082
2185
2143
2003
1922
1944
1965
1892
1785
1761
1812
1769
1517
1187
1041
1189
1436
1472
1204
851
689
792
969
1009
850
597
397
324
361
447
507
467
315
117
-19
-29
44
48
-102
-340
-483
-444
-308
-242
-297
-365
-333
-248
-248
-371
-487
-473
-386
-385
-524
-679
-692
-550
-436
-464
-586
-637
-541
-387
-299
-309
-342
-333
-297
-286
-340
-426
-478
-465
-417
-376
-369
-382
-364
-287
-177
-100
-105
-152
-149
-78
-19
-61
-184
-264
-224
-119
-66
-112
-209
-252
-212
-123
-42
-16
-78
-187
-235
-149
25
137
89
-40
-100
-43
39
64
27
1
1
-19
-72
-78
14
130
153
72
23
115
267
303
174
27
9
92
102
-19
-146
-130
-7
56
-16
-93
-10
198
332
266
92
9
85
201
227
156
84
59
48
33
58
148
224
179
42
-39
52
225
270
124
-61
-96
20
124
79
-35
-61
45
182
233
191
135
106
90
60
19
-21
-44
-34
9
56
47
-4
-17
74
225
298
209
44
-31
61
213
251
111
-98
-198
-112
85
227
218
93
4
51
200
323
306
183
89
90
127
106
27
-10
48
127
117
35
16
138
297
316
184
72
128
304
429
415
325
254
232
257
344
483
554
436
202
99
291
630
803
669
429
392
631
929
1044
938
763
675
686
734
768
784
781
746
702
696
743
780
731
603
498
492
543
552
477
386
354
377
378
294
135
-29
-114
-86
5
51
2
-64
-18
148
276
236
87
11
72
151
104
-39
-112
-59
18
9
-63
-106
-115
-180
-321
-430
-394
-231
-73
26
122
271
427
503
525
616
821
1051
1240
1455
1784
2119
2171
1757
1052
423
-7
-480
-1286
-2338
-3191
-3493
-3320
-3036
-2844
-2643
-2257
-1696
-1139
-703
-361
-67
148
235
249
309
442
545
523
437
424
514
591
559
481
494
639
805
861
792
687
630
624
663
739
824
862
840
807
829
885
893
824
768
805
906
953
901
831
839
921
978
943
853
804
840
942
1055
1122
1126
1097
1104
1187
1280
1296
1242
1191
1221
1292
1321
1273
1200
1171
1198
1255
1325
1388
1426
1450
1510
1636
1750
1743
1629
1553
1611
1722
1715
1565
1450
1519
1692
1784
1732
1656
1693
1807
1856
1795
1720
1744
1839
1875
1835
1789
1802
1835
1796
1695
1629
1654
1699
1655
1536
1468
1498
1532
1435
1231
1077
1064
1109
1072
927
791
780
863
908
826
649
474
384
379
375
284
118
-34
-79
-45
-29
-113
-261
-393
-471
-506
-520
-519
-511
-530
-553
-522
-445
-394
-444
-560
-669
-735
-786
-830
-827
-756
-674
-673
-730
-726
-606
-469
-470
-630
-808
-846
-728
-600
-591
-700
-795
-754
-590
-445
-439
-559
-662
-637
-512
-414
-413
-483
-540
-545
-512
-471
-463
-484
-513
-514
-473
-417
-402
-427
-430
-384
-320
-314
-382
-472
-518
-490
-428
-394
-415
-454
-447
-366
-243
-147
-98
-72
-51
-66
-142
-248
-310
-295
-259
-268
-298
-294
-249
-200
-184
-169
-111
-46
-54
-154
-259
-274
-201
-140
-137
-145
-114
-64
-60
-99
-106
-59
-41
-111
-187
-140
12
86
-28
-207
-216
-22
128
35
-207
-305
-134
107
174
44
-125
-193
-169
-134
-116
-106
-122
-188
-267
-276
-199
-119
-124
-187
-202
-120
-3
54
31
-19
-37
-20
7
12
-9
-53
-93
-105
-89
-47
-9
-4
-19
-17
21
52
26
-50
-100
-58
41
102
64
-15
-30
40
90
40
-73
-144
-135
-96
-78
-36
62
174
210
149
85
109
160
120
-21
-120
-64
75
129
70
55
182
338
329
144
-7
51
233
291
133
-72
-84
131
361
400
257
111
105
214
295
252
138
69
119
228
294
265
193
151
175
229
261
256
239
244
299
402
516
589
605
579
555
574
660
787
895
895
762
598
582
765
972
970
727
476
456
662
856
844
666
500
486
606
745
772
633
399
213
178
240
244
133
24
66
230
337
268
142
143
285
404
381
261
178
186
226
235
213
183
144
104
94
133
157
96
-38
-121
-92
-33
-72
-199
-251
-113
147
359
425
418
488
684
924
1077
1112
1131
1280
1624
2050
2340
2327
2025
1598
1152
637
-39
-874
-1724
-2448
-2983
-3293
-3306
-3005
-2527
-2101
-1805
-1511
-1032
-407
107
310
284
301
505
765
849
704
496
414
463
487
396
293
351
585
841
945
911
891
944
987
937
834
807
880
945
903
787
724
780
898
967
950
891
857
878
933
992
1032
1036
1019
1011
1039
1104
1168
1189
1151
1091
1081
1134
1209
1249
1230
1189
1143
1082
1058
1148
1321
1440
1387
1214
1127
1237
1425
1471
1337
1189
1218
1392
1525
1525
1466
1472
1559
1634
1634
1598
1607
1675
1732
1727
1698
1721
1821
1906
1890
1815
1813
1940
2070
2026
1805
1594
1577
1734
1851
1773
1589
1490
1559
1685
1720
1632
1514
1450
1431
1418
1344
1216
1099
1042
1022
974
873
791
815
906
914
750
538
480
583
634
442
100
-117
-100
3
-15
-166
-307
-366
-384
-405
-397
-328
-244
-225
-271
-326
-360
-405
-457
-475
-452
-485
-646
-824
-824
-647
-512
-589
-766
-779
-542
-267
-222
-435
-659
-671
-500
-364
-447
-683
-853
-807
-584
-379
-342
-442
-514
-462
-344
-309
-382
-469
-474
-431
-430
-491
-556
-543
-436
-289
-179
-166
-254
-375
-448
-443
-390
-344
-315
-266
-192
-141
-141
-141
-92
-34
-66
-226
-411
-492
-447
-353
-283
-247
-199
-134
-86
-63
-34
20
66
58
-22
-104
-122
-61
34
96
87
30
-10
1
53
83
47
-30
-72
-53
-7
9
-10
-35
-51
-80
-115
-89
47
233
322
233
55
-40
14
131
153
10
-213
-357
-319
-131
49
86
0
-69
-27
63
82
1
-59
-15
67
68
-4
-34
56
157
140
48
46
178
265
125
-158
-294
-128
163
259
72
-164
-150
120
376
388
197
36
42
142
179
117
48
62
121
143
108
82
129
240
321
318
231
135
97
130
186
197
144
97
122
223
307
295
206
133
161
259
322
272
143
38
45
159
277
308
267
248
310
402
422
357
293
286
290
224
114
112
278
482
535
394
244
282
487
656
629
485
418
518
678
753
743
771
904
1034
993
768
545
497
596
659
569
415
372
488
648
741
759
743
695
585
428
318
298
294
209
60
-15
29
83
40
-28
34
250
426
366
133
9
149
406
508
359
118
-15
7
99
176
207
182
91
-15
-55
5
97
132
111
102
149
245
362
508
684
850
944
958
991
1140
1417
1740
2021
2194
2221
2093
1812
1392
875
289
-372
-1121
-1905
-2579
-2965
-3000
-2792
-2524
-2272
-1966
-1529
-989
-474
-85
183
370
476
498
506
580
712
786
703
536
467
543
649
654
575
548
644
776
828
785
752
796
894
981
1028
1041
1015
951
895
904
981
1040
1017
957
960
1077
1220
1245
1118
952
901
998
1132
1170
1100
1035
1070
1167
1210
1151
1073
1085
1153
1147
1048
978
1062
1236
1336
1298
1235
1291
1447
1565
1558
1474
1425
1455
1539
1622
1654
1630
1570
1543
1616
1738
1795
1739
1673
1725
1894
2022
2012
1947
1980
2127
2222
2124
1904
1779
1851
1991
2007
1874
1753
1771
1894
1983
1982
1944
1926
1868
1705
1496
1401
1477
1579
1526
1307
1115
1119
1253
1325
1227
1032
863
748
632
529
510
585
624
491
246
90
132
233
172
-68
-278
-291
-171
-129
-254
-412
-438
-329
-267
-390
-620
-776
-732
-573
-498
-614
-826
-930
-817
-588
-436
-457
-576
-658
-651
-607
-606
-664
-758
-858
-908
-865
-741
-632
-640
-724
-738
-574
-347
-297
-519
-831
-947
-785
-561
-534
-722
-882
-775
-450
-184
-175
-366
-528
-516
-397
-330
-382
-487
-527
-454
-321
-225
-214
-267
-324
-344
-334
-321
-302
-282
-276
-301
-319
-279
-187
-127
-167
-244
-243
-173
-142
-222
-299
-233
-48
59
-43
-241
-327
-237
-121
-142
-262
-340
-304
-223
-180
-158
-90
12
46
-46
-192
-270
-237
-192
-224
-319
-370
-326
-257
-241
-278
-299
-264
-228
-235
-269
-274
-249
-244
-277
-300
-252
-166
-132
-212
-349
-427
-398
-328
-310
-385
-503
-562
-515
-408
-330
-311
-318
-299
-257
-232
-246
-272
-285
-279
-271
-280
-321
-397
-486
-515
-435
-298
-227
-289
-425
-498
-438
-320
-262
-291
-312
-252
-154
-129
-218
-346
-400
-364
-347
-453
-642
-760
-702
-508
-328
-268
-313
-360
-339
-265
-203
-205
-261
-316
-342
-331
-301
-282
-271
-246
-192
-116
-55
-44
-82
-128
-121
-15
148
244
155
-66
-233
-196
0
149
120
-30
-110
-44
75
129
110
101
118
93
15
-36
33
162
181
38
-129
-178
-136
-181
-396
-638
-702
-582
-476
-560
-762
-856
-732
-500
-368
-420
-576
-708
-743
-694
-617
-574
-606
-693
-767
-780
-734
-693
-691
-738
-809
-894
-950
-935
-876
-832
-831
-809
-677
-481
-360
-367
-378
-248
2
183
185
125
223
563
974
1216
1172
880
442
-44
-524
-1012
-1619
-2415
-3287
-3923
-4079
-3846
-3546
-3387
-3251
-2882
-2230
-1556
-1154
-1021
-918
-705
-467
-388
-464
-523
-461
-374
-409
-549
-622
-516
-342
-285
-386
-466
-327
-15
196
80
-266
-495
-380
-71
66
-133
-440
-496
-245
14
-4
-221
-323
-160
82
137
-18
-161
-108
41
95
-7
-132
-155
-87
-33
-38
-48
-33
-17
-38
-64
-44
16
61
67
74
124
196
230
208
193
242
337
378
309
196
156
236
365
432
402
354
388
494
566
544
504
563
710
786
678
508
494
666
803
710
469
361
522
769
832
688
556
602
740
756
587
382
307
351
385
336
253
217
213
179
117
93
118
119
-10
-245
-457
-558
-588
-689
-931
-1233
-1448
-1522
-1544
-1631
-1796
-1924
-1909
-1800
-1760
-1866
-2037
-2126
-2099
-2083
-2163
-2265
-2274
-2210
-2221
-2372
-2522
-2502
-2362
-2327
-2516
-2760
-2793
-2553
-2272
-2188
-2308
-2431
-2416
-2296
-2216
-2262
-2399
-2530
-2576
-2533
-2455
-2414
-2405
-2392
-2333
-2240
-2181
-2211
-2293
-2333
-2269
-2141
-2068
-2111
-2198
-2211
-2108
-1984
-1971
-2080
-2190
-2190
-2094
-1994
-1942
-1917
-1875
-1839
-1865
-1939
-1985
-1947
-1868
-1864
-1992
-2156
-2180
-2007
-1767
-1666
-1752
-1869
-1853
-1716
-1621
-1672
-1781
-1802
-1726
-1670
-1694
-1731
-1713
-1678
-1714
-1797
-1805
-1704
-1629
-1715
-1901
-1981
-1873
-1735
-1753
-1903
-1993
-1923
-1807
-1800
-1889
-1909
-1788
-1654
-1668
-1805
-1879
-1789
-1657
-1659
-1804
-1929
-1903
-1793
-1748
-1825
-1942
-1995
-1948
-1831
-1714
-1671
-1733
-1847
-1887
-1785
-1637
-1601
-1717
-1847
-1849
-1742
-1646
-1622
-1633
-1640
-1659
-1706
-1741
-1717
-1667
-1658
-1693
-1713
-1680
-1638
-1622
-1611
-1573
-1552
-1605
-1663
-1607
-1448
-1362
-1497
-1741
-1819
-1629
-1389
-1379
-1636
-1906
-1925
-1705
-1465
-1378
-1419
-1456
-1423
-1368
-1353
-1380
-1415
-1436
-1453
-1486
-1518
-1527
-1515
-1485
-1442
-1376
-1320
-1320
-1373
-1414
-1366
-1255
-1185
-1234
-1374
-1481
-1477
-1388
-1294
-1250
-1273
-1328
-1344
-1267
-1112
-978
-965
-1071
-1179
-1194
-1129
-1081
-1113
-1179
-1182
-1078
-904
-751
-675
-663
-686
-710
-722
-726
-736
-774
-837
-886
-876
-810
-737
-715
-764
-837
-890
-911
-927
-957
-995
-1047
-1116
-1182
-1231
-1241
-1211
-1167
-1147
-1187
-1285
-1378
-1389
-1301
-1187
-1141
-1173
-1213
-1208
-1164
-1149
-1181
-1219
-1260
-1362
-1523
-1636
-1595
-1444
-1383
-1515
-1706
-1736
-1550
-1335
-1295
-1426
-1541
-1481
-1282
-1111
-1075
-1129
-1151
-1068
-909
-760
-669
-589
-423
-109
289
593
615
308
-195
-711
-1171
-1704
-2474
-3414
-4220
-4610
-4598
-4452
-4365
-4249
-3915
-3371
-2840
-2499
-2255
-1912
-1477
-1205
-1261
-1475
-1508
-1239
-914
-861
-1118
-1416
-1493
-1346
-1174
-1126
-1183
-1222
-1189
-1115
-1053
-1007
-973
-984
-1060
-1146
-1168
-1099
-1042
-1103
-1262
-1386
-1390
-1326
-1306
-1353
-1370
-1274
-1128
-1080
-1185
-1340
-1399
-1354
-1341
-1461
-1653
-1755
-1679
-1500
-1366
-1369
-1453
-1496
-1462
-1387
-1340
-1369
-1469
-1587
-1645
-1588
-1443
-1317
-1278
-1283
-1234
-1116
-1038
-1084
-1205
-1265
-1210
-1139
-1181
-1312
-1382
-1296
-1120
-993
-979
-1018
-1027
-991
-943
-909
-879
-869
-891
-945
-980
-940
-854
-801
-839
-932
-987
-952
-875
-860
-974
-1169
-1323
-1373
-1372
-1428
-1565
-1692
-1716
-1676
-1687
-1791
-1907
-1952
-1944
-2001
-2178
-2375
-2462
-2442
-2439
-2567
-2779
-2931
-2938
-2875
-2888
-3036
-3244
-3393
-3434
-3398
-3372
-3440
-3607
-3789
-3882
-3846
-3764
-3793
-3962
-4159
-4229
-4165
-4097
-4137
-4224
-4237
-4167
-4145
-4251
-4402
-4426
-4288
-4157
-4181
-4331
-4449
-4426
-4340
-4311
-4367
-4416
-4375
-4278
-4238
-4302
-4410
-4436
-4334
-4207
-4200
-4337
-4475
-4456
-4296
-4163
-4206
-4363
-4456
-4409
-4338
-4367
-4465
-4467
-4340
-4250
-4343
-4523
-4534
-4288
-4007
-3989
-4253
-4499
-4449
-4155
-3941
-4021
-4286
-4426
-4300
-4079
-4044
-4249
-4460
-4441
-4236
-4094
-4169
-4338
-4376
-4228
-4076
-4086
-4236
-4364
-4359
-4257
-4160
-4111
-4106
-4124
-4129
-4086
-3996
-3930
-3988
-4175
-4374
-4446
-4382
-4297
-4290
-4353
-4412
-4381
-4254
-4099
-4009
-4059
-4234
-4415
-4485
-4420
-4334
-4314
-4335
-4338
-4320
-4315
-4314
-4248
-4096
-3972
-4015
-4200
-4354
-4335
-4177
-4061
-4076
-4145
-4160
-4106
-4036
-3977
-3920
-3877
-3893
-3977
-4051
-4030
-3943
-3897
-3943
-4017
-4037
-3993
-3955
-3969
-4003
-4004
-3958
-3924
-3951
-4013
-4046
-3988
-3877
-3842
-3945
-4096
-4114
-3923
-3694
-3672
-3879
-4078
-4029
-3785
-3618
-3713
-3961
-4116
-4085
-3992
-3974
-4032
-4072
-4074
-4080
-4096
-4074
-3998
-3942
-3973
-4039
-4036
-3947
-3887
-3934
-4033
-4067
-3990
-3909
-3938
-4041
-4098
-4026
-3897
-3854
-3919
-4019
-4036
-3934
-3815
-3804
-3944
-4116
-4136
-3957
-3748
-3736
-3934
-4080
-3926
-3551
-3332
-3514
-3898
-4064
-3864
-3603
-3638
-3930
-4092
-3889
-3524
-3383
-3566
-3785
-3741
-3482
-3321
-3411
-3612
-3675
-3565
-3480
-3541
-3668
-3714
-3662
-3655
-3798
-3989
-4055
-3975
-3909
-3987
-4155
-4233
-4140
-4005
-4005
-4172
-4388
-4512
-4512
-4466
-4453
-4490
-4544
-4558
-4499
-4377
-4258
-4232
-4310
-4410
-4424
-4328
-4208
-4164
-4221
-4333
-4448
-4525
-4520
-4416
-4280
-4243
-4392
-4625
-4720
-4583
-4368
-4341
-4570
-4833
-4834
-4532
-4178
-4024
-4069
-4114
-4022
-3846
-3713
-3639
-3537
-3355
-3099
-2794
-2458
-2178
-2111
-2347
-2801
-3288
-3761
-4370
-5240
-6216
-6952
-7234
-7161
-7003
-6900
-6747
-6381
-5784
-5133
-4629
-4326
-4142
-3941
-3686
-3456
-3361
-3411
-3507
-3534
-3461
-3383
-3395
-3490
-3566
-3507
-3291
-3007
-2814
-2827
-3010
-3166
-3121
-2899
-2728
-2790
-2994
-3065
-2861
-2561
-2464
-2630
-2816
-2799
-2646
-2617
-2797
-2986
-2970
-2765
-2607
-2618
-2704
-2698
-2590
-2509
-2516
-2555
-2538
-2479
-2460
-2518
-2598
-2613
-2528
-2390
-2298
-2314
-2398
-2421
-2306
-2121
-2022
-2080
-2207
-2286
-2280
-2236
-2189
-2109
-2005
-1954
-1965
-1951
-1829
-1661
-1628
-1770
-1924
-1912
-1778
-1728
-1823
-1908
-1814
-1599
-1481
-1556
-1669
-1620
-1438
-1332
-1422
-1576
-1594
-1464
-1367
-1437
-1608
-1688
-1618
-1550
-1639
-1826
-1900
-1757
-1553
-1526
-1710
-1940
-2040
-2034
-2086
-2237
-2380
-2397
-2336
-2343
-2467
-2581
-2551
-2437
-2427
-2630
-2930
-3114
-3124
-3059
-3036
-3056
-3076
-3109
-3205
-3335
-3378
-3283
-3194
-3289
-3550
-3752
-3725
-3534
-3417
-3480
-3617
-3661
-3595
-3541
-3569
-3604
-3565
-3467
-3429
-3507
-3616
-3612
-3465
-3322
-3336
-3514
-3676
-3652
-3485
-3361
-3413
-3568
-3627
-3501
-3296
-3187
-3216
-3286
-3273
-3180
-3103
-3130
-3225
-3278
-3247
-3166
-3110
-3089
-3055
-2996
-2955
-2957
-2942
-2856
-2771
-2808
-2942
-2977
-2777
-2501
-2448
-2689
-2942
-2920
-2701
-2612
-2813
-3060
-3029
-2731
-2505
-2567
-2756
-2774
-2555
-2337
-2328
-2476
-2558
-2490
-2375
-2319
-2303
-2262
-2207
-2223
-2306
-2341
-2252
-2119
-2091
-2185
-2252
-2162
-1983
-1899
-1980
-2106
-2127
-2060
-2053
-2181
-2324
-2286
-2068
-1892
-1956
-2174
-2277
-2134
-1932
-1953
-2227
-2449
-2344
-2017
-1823
-1954
-2217
-2269
-2026
-1746
-1704
-1903
-2121
-2163
-2041
-1873
-1758
-1724
-1751
-1793
-1787
-1703
-1586
-1542
-1632
-1805
-1927
-1916
-1813
-1722
-1725
-1789
-1814
-1745
-1625
-1539
-1537
-1608
-1675
-1681
-1610
-1521
-1492
-1536
-1597
-1614
-1585
-1555
-1543
-1498
-1405
-1352
-1423
-1550
-1536
-1311
-1070
-1080
-1347
-1580
-1533
-1301
-1185
-1316
-1501
-1499
-1328
-1216
-1287
-1405
-1369
-1178
-1024
-1041
-1153
-1211
-1153
-1050
-1015
-1069
-1138
-1141
-1080
-1035
-1063
-1099
-1027
-847
-704
-734
-898
-1019
-991
-903
-898
-989
-1059
-1026
-940
-877
-831
-781
-748
-785
-850
-858
-801
-769
-815
-852
-768
-583
-456
-464
-521
-506
-426
-364
-319
-215
-79
-53
-208
-399
-375
-111
110
27
-283
-481
-340
-7
189
89
-132
-191
-52
79
33
-103
-132
-33
28
-63
-185
-134
90
264
211
22
-83
-43
-10
-109
-271
-350
-335
-331
-375
-382
-273
-132
-100
-171
-230
-188
-90
-49
-107
-214
-292
-307
-278
-219
-150
-91
-72
-100
-143
-174
-176
-171
-206
-301
-425
-517
-539
-519
-486
-431
-320
-155
17
153
260
385
559
752
931
1124
1385
1733
2074
2224
2053
1611
1072
562
22
-700
-1608
-2476
-3028
-3193
-3131
-3010
-2823
-2467
-1963
-1447
-1024
-659
-286
43
213
200
149
220
413
555
504
320
216
316
536
660
585
431
421
618
854
897
697
449
407
626
930
1104
1094
1012
962
949
929
903
877
838
753
662
663
789
946
1005
963
936
988
1059
1059
1011
1021
1114
1197
1174
1082
1044
1113
1203
1210
1148
1097
1103
1158
1230
1321
1449
1567
1619
1588
1524
1509
1553
1594
1577
1510
1466
1504
1607
1716
1778
1788
1768
1753
1792
1896
2019
2069
2016
1947
1975
2096
2183
2130
1997
1943
2024
2123
2111
2002
1920
1953
2058
2114
2064
1974
1920
1912
1870
1762
1649
1616
1652
1656
1569
1471
1478
1550
1527
1330
1083
957
957
911
741
570
543
618
620
480
329
297
332
298
170
64
68
125
108
-9
-137
-148
-71
-21
-115
-304
-431
-393
-281
-289
-452
-555
-380
-45
102
-137
-510
-616
-382
-160
-260
-586
-768
-627
-348
-198
-212
-248
-242
-263
-341
-361
-241
-80
-61
-190
-290
-222
-69
10
-43
-110
-107
-68
-56
-50
12
132
250
314
323
277
171
51
18
116
226
172
-19
-97
106
450
620
498
270
201
299
384
363
357
484
669
708
548
379
396
578
724
667
477
346
382
520
644
705
729
746
746
706
683
750
897
983
886
681
568
651
800
819
699
637
782
984
1000
844
784
978
1222
1182
855
596
650
871
913
727
635
857
1196
1276
1039
818
908
1185
1250
948
564
470
726
1019
1050
857
709
777
942
1003
909
805
827
931
975
914
842
873
998
1100
1098
1020
925
852
799
784
843
944
1013
1002
964
1015
1165
1279
1210
1005
867
912
1045
1071
952
855
923
1085
1146
1034
874
839
937
1033
1048
1033
1055
1092
1083
1051
1072
1149
1173
1068
923
909
1091
1327
1394
1242
1038
1001
1163
1342
1332
1114
886
849
1022
1223
1273
1184
1105
1141
1256
1327
1296
1218
1167
1156
1156
1158
1182
1218
1214
1171
1164
1242
1342
1365
1319
1322
1435
1552
1528
1403
1348
1426
1518
1508
1453
1505
1677
1811
1790
1686
1662
1750
1820
1767
1623
1486
1417
1421
1469
1533
1588
1612
1628
1652
1663
1625
1546
1488
1476
1441
1302
1115
1022
1087
1224
1299
1274
1211
1172
1158
1139
1127
1151
1170
1140
1070
1043
1131
1309
1452
1450
1313
1152
1086
1114
1137
1081
984
947
1001
1068
1063
1008
988
1027
1042
981
925
996
1192
1350
1362
1321
1422
1719
2053
2254
2359
2556
2907
3228
3244
2891
2366
1880
1425
834
18
-891
-1626
-2049
-2193
-2148
-1957
-1635
-1249
-877
-517
-92
396
785
915
866
889
1109
1356
1388
1239
1192
1416
1691
1672
1338
1056
1145
1494
1697
1559
1295
1250
1471
1686
1672
1501
1430
1581
1795
1855
1736
1606
1617
1734
1817
1792
1713
1656
1644
1651
1687
1757
1827
1834
1773
1714
1715
1760
1775
1757
1768
1809
1813
1748
1699
1777
1958
2109
2128
2071
2076
2153
2207
2198
2169
2195
2242
2220
2135
2100
2188
2321
2375
2332
2304
2362
2453
2474
2429
2411
2467
2539
2550
2530
2554
2638
2720
2734
2712
2705
2717
2732
2743
2761
2753
2671
2551
2493
2535
2567
2440
2200
2048
2115
2290
2341
2210
2053
1997
2008
1960
1814
1657
1566
1528
1481
1404
1320
1255
1241
1291
1355
1315
1123
863
686
639
617
493
292
135
80
65
9
-97
-203
-275
-297
-274
-231
-230
-298
-372
-361
-269
-204
-283
-466
-589
-575
-495
-453
-434
-385
-329
-338
-410
-441
-358
-234
-220
-336
-470
-513
-490
-471
-451
-375
-254
-172
-184
-195
-102
47
95
-11
-131
-117
-6
32
-52
-121
-53
103
163
79
-6
44
171
212
141
100
171
279
307
270
300
442
580
601
540
525
578
604
537
446
436
500
520
429
305
263
349
495
604
627
589
557
598
735
887
948
868
724
644
683
779
826
781
723
744
849
937
922
839
804
871
941
892
757
697
793
937
952
826
730
781
876
872
772
732
826
944
956
895
893
980
1037
955
793
717
780
875
860
734
634
690
908
1146
1237
1108
864
716
773
936
1001
878
708
691
852
1017
1053
996
973
1016
1016
930
844
861
940
934
802
700
788
1029
1208
1191
1051
987
1061
1144
1095
950
870
906
947
895
829
914
1156
1338
1268
1032
916
1051
1260
1268
1065
882
893
1020
1085
1046
1028
1105
1188
1156
1041
1000
1099
1254
1327
1274
1179
1153
1214
1295
1321
1295
1299
1381
1488
1520
1458
1426
1570
1823
1961
1849
1598
1437
1469
1596
1671
1632
1513
1385
1322
1397
1602
1791
1789
1584
1385
1394
1569
1664
1533
1292
1165
1188
1202
1097
969
989
1140
1235
1155
1019
1031
1219
1376
1319
1124
1027
1131
1281
1257
1048
857
861
1032
1166
1161
1110
1131
1199
1168
1008
861
899
1059
1103
919
691
713
1066
1494
1689
1601
1463
1519
1798
2122
2326
2380
2418
2581
2884
3141
3102
2671
2026
1416
942
447
-252
-1092
-1809
-2152
-2111
-1881
-1618
-1331
-945
-466
30
447
788
1092
1348
1481
1479
1440
1488
1627
1735
1712
1585
1494
1516
1593
1631
1605
1575
1624
1775
1925
1949
1799
1626
1637
1862
2079
2022
1730
1539
1707
2087
2269
2085
1801
1797
2095
2349
2264
1928
1675
1699
1894
2054
2087
2053
2032
2056
2129
2238
2332
2323
2197
2044
2007
2131
2291
2356
2301
2214
2221
2339
2458
2466
2376
2308
2336
2420
2464
2446
2420
2446
2502
2527
2517
2538
2641
2794
2915
2961
2934
2892
2898
2984
3109
3139
2964
2674
2516
2642
2925
3081
2971
2757
2701
2881
3140
3259
3176
2982
2782
2635
2580
2621
2697
2699
2580
2390
2249
2236
2326
2393
2310
2071
1801
1679
1773
1941
1946
1706
1424
1368
1579
1773
1651
1254
907
828
910
881
667
458
421
518
567
492
397
376
385
325
186
55
14
45
87
73
-1
-89
-111
-14
128
193
128
-2
-73
-63
-46
-63
-63
-5
58
19
-64
-60
60
145
55
-104
-132
-7
33
-124
-230
-4
449
670
425
50
40
399
642
448
84
5
240
391
202
-89
-113
122
264
125
-77
-33
303
703
997
1194
1358
1463
1459
1326
1125
882
613
370
244
278
412
495
446
358
411
668
989
1077
794
359
140
309
715
1032
1111
1060
1054
1145
1273
1395
1459
1414
1283
1173
1171
1196
1131
1044
1148
1512
1879
1841
1396
987
1013
1350
1520
1266
845
691
909
1211
1333
1308
1323
1423
1429
1205
837
549
516
725
978
1092
1038
929
930
1070
1166
1021
616
171
-77
-130
-139
-214
-280
-214
-45
61
-43
-301
-520
-554
-420
-211
-3
175
299
370
417
499
539
356
-93
-583
-843
-823
-677
-478
-92
510
1087
1288
1082
782
629
513
242
-67
-102
138
283
101
-173
-38
490
868
645
29
-314
-32
517
817
779
787
1141
1673
1930
1697
1264
1077
1314
1758
2125
2289
2419
2656
3007
3336
3534
3535
3296
2762
2021
1413
1317
1743
2250
2315
1899
1543
1700
2242
2546
2201
1525
1111
1111
1120
694
-40
-561
-588
-412
-484
-912
-1456
-1830
-2028
-2244
-2681
-3290
-3937
-4470
-4921
-5406
-5991
-6559
-6889
-6937
-6914
-7082
-7514
-8014
-8426
-8774
-9210
-9791
-10414
-10965
-11404
-11697
-11811
-11745
-11610
-11592
-11747
-11924
-11920
-11761
-11743
-12124
-12808
-13363
-13470
-13281
-13235
-13581
-14060
-14168
-13731
-13028
-12491
-12327
-12475
-12807
-13214
-13579
-13895
-14339
-15201
-16485
-17673
-18146
-17781
-17137
-16840
-16934
-16919
-16315
-15230
-14201
-13625
-13497
-13527
-13460
-13221
-12877
-12573
-12450
-12550
-12783
-12955
-12986
-12890
-12736
-12545
-12347
-12218
-12196
-12154
-11853
-11276
-10712
-10483
-10578
-10651
-10407
-9922
-9586
-9650
-10034
-10439
-10578
-10378
-9995
-9740
-9752
-9843
-9689
-9181
-8633
-8479
-8748
-9034
-9003
-8756
-8657
-8783
-8840
-8564
-8078
-7741
-7702
-7759
-7643
-7348
-7094
-7116
-7433
-7774
-7778
-7285
-6530
-5987
-5930
-6141
-6176
-5881
-5545
-5509
-5759
-6005
-6076
-6064
-6123
-6207
-6220
-6158
-6055
-5962
-5918
-5968
-6119
-6212
-6147
-6094
-6368
-6985
-7453
-7290
-6649
-6290
-6678
-7408
-7682
-7216
-6558
-6387
-6760
-7182
-7239
-6953
-6574
-6318
-6249
-6345
-6525
-6652
-6628
-6496
-6390
-6385
-6486
-6637
-6695
-6520
-6075
-5602
-5470
-5785
-6217
-6273
-5888
-5499
-5590
-6157
-6666
-6562
-5800
-4928
-4606
-5001
-5587
-5717
-5276
-4834
-5014
-5751
-6343
-6193
-5421
-4725
-4560
-4688
-4574
-4099
-3673
-3732
-4204
-4618
-4605
-4205
-3741
-3445
-3299
-3184
-3039
-2852
-2650
-2466
-2395
-2530
-2833
-3023
-2878
-2468
-2094
-1918
-1800
-1555
-1246
-1071
-1110
-1170
-1046
-810
-668
-659
-605
-397
-147
37
193
384
536
520
464
671
1151
1485
1245
559
105
354
965
1119
433
-606
-1142
-812
-89
272
-49
-709
-1138
-1041
-652
-459
-746
-1361
-1961
-2377
-2620
-2774
-2845
-2871
-2970
-3230
-3552
-3702
-3620
-3593
-3898
-4463
-4899
-4975
-4925
-5093
-5437
-5609
-5443
-5282
-5566
-6257
-6880
-7090
-7086
-7286
-7728
-8025
-7852
-7391
-7052
-7035
-7177
-7318
-7525
-7859
-8169
-8248
-8151
-8219
-8668
-9282
-9623
-9496
-9172
-9135
-9607
-10319
-10756
-10643
-10238
-10073
-10465
-11132
-11446
-11142
-10594
-10414
-10817
-11391
-11631
-11473
-11242
-11266
-11525
-11824
-12036
-12169
-12159
-11917
-11561
-11402
-11594
-11843
-11587
-10711
-9811
-9572
-10041
-10534
-10456
-9985
-9765
-10029
-10340
-10209
-9735
-9393
-9343
-9245
-8812
-8242
-7934
-7909
-7791
-7384
-6930
-6751
-6748
-6552
-6002
-5361
-4947
-4773
-4651
-4500
-4335
-4093
-3664
-3167
-2910
-3039
-3206
-2961
-2322
-1762
-1672
-1915
-2078
-2017
-1897
-1786
-1449
-727
102
556
523
380
576
1174
1869
2281
2239
1837
1374
1233
1598
2189
2501
2322
1988
2064
2719
3503
3899
3843
3745
3989
4515
4875
4772
4335
4000
4081
4431
4609
4413
4056
3929
4154
4506
4733
4776
4693
4552
4398
4366
4584
4947
5131
4955
4605
4436
4579
4840
4913
4712
4515
4598
4957
5290
5246
4829
4463
4541
4982
5329
5231
4867
4681
4824
5029
5027
4887
4880
5015
4991
4679
4441
4746
5557
6240
6317
6075
6264
7197
8337
8796
8265
7310
6629
6320
5960
5209
4163
3189
2447
1879
1541
1612
2106
2755
3329
3848
4450
5051
5399
5454
5476
5681
5894
5763
5262
4777
4618
4646
4551
4291
4092
4034
3976
3864
3909
4218
4469
4195
3501
3111
3505
4231
4382
3704
2910
2821
3378
3798
3580
3011
2700
2847
3144
3244
3068
2669
2168
1838
1976
2544
2964
2636
1688
971
1116
1746
1886
1211
475
464
1039
1336
976
560
822
1507
1630
826
-137
-224
579
1180
694
-482
-1151
-704
294
871
704
232
-65
-234
-527
-928
-1147
-1031
-797
-780
-1047
-1394
-1583
-1566
-1435
-1340
-1435
-1813
-2335
-2743
-2925
-2959
-3051
-3309
-3660
-3972
-4199
-4294
-4229
-4124
-4164
-4459
-4880
-5164
-5220
-5222
-5359
-5595
-5759
-5836
-5944
-6128
-6276
-6289
-6240
-6256
-6366
-6512
-6695
-6995
-7339
-7551
-7522
-7329
-7210
-7297
-7555
-7778
-7775
-7527
-7201
-7127
-7481
-8018
-8252
-7957
-7413
-7114
-7192
-7312
-7199
-6927
-6771
-6731
-6530
-6064
-5648
-5673
-6049
-6254
-5972
-5403
-5044
-5088
-5268
-5218
-4870
-4419
-4064
-3858
-3781
-3760
-3655
-3368
-2916
-2479
-2231
-2207
-2249
-2163
-1891
-1530
-1248
-1152
-1186
-1183
-1002
-603
-151
92
-42
-434
-749
-690
-293
85
159
33
53
424
1002
1462
1710
1962
2382
2792
2877
2514
1989
1723
1895
2282
2493
2421
2326
2495
2907
3252
3300
3200
3281
3588
3798
3670
3408
3469
3950
4429
4419
3989
3630
3691
4010
4194
4175
4198
4423
4681
4695
4516
4553
5015
5581
5669
5206
4753
4868
5414
5696
5337
4744
4618
5026
5362
5192
4806
4803
5212
5485
5274
4853
4744
5001
5190
5038
4794
4830
5110
5267
5133
4945
4979
5217
5393
5305
5072
4910
4913
5054
5242
5419
5509
5492
5408
5354
5396
5441
5365
5131
4961
5126
5584
5967
5911
5537
5328
5507
5732
5514
4833
4232
4141
4336
4347
4089
3918
4082
4373
4453
4344
4337
4494
4490
4136
3671
3437
3452
3429
3239
3094
3171
3348
3314
3061
2852
2864
2925
2733
2287
1935
1912
2073
2078
1849
1643
1664
1857
1958
1805
1555
1420
1396
1311
1108
954
995
1124
1075
834
706
830
970
790
374
171
411
708
526
-91
-483
-220
294
323
-290
-969
-1157
-981
-936
-1267
-1728
-2045
-2223
-2357
-2457
-2530
-2809
-3490
-4276
-4608
-4345
-4077
-4345
-4901
-5026
-4493
-3903
-3916
-4334
-4442
-4043
-3751
-4161
-4973
-5343
-4966
-4470
-4603
-5273
-5587
-5051
-4169
-3921
-4586
-5403
-5444
-4676
-4031
-4303
-5172
-5625
-5181
-4434
-4308
-4888
-5407
-5264
-4821
-4865
-5544
-6091
-5793
-4891
-4272
-4371
-4709
-4595
-3997
-3632
-4131
-5384
-6724
-7659
-8304
-9022
-9795
-10211
-9911
-9173
-8577
-8349
-8092
-7359
-6296
-5578
-5570
-5906
-5933
-5487
-5084
-5182
-5558
-5553
-4890
-4007
-3488
-3450
-3521
-3360
-2974
-2579
-2290
-2052
-1830
-1693
-1682
-1728
-1683
-1496
-1228
-1059
-1097
-1256
-1281
-1038
-700
-647
-1039
-1553
-1727
-1496
-1219
-1202
-1297
-1125
-647
-228
-196
-423
-567
-479
-316
-285
-356
-412
-409
-332
-133
179
426
506
516
665
908
864
381
-105
48
879
1707
1876
1487
1224
1464
1916
2048
1771
1490
1530
1836
2136
2268
2316
2393
2510
2549
2429
2169
1865
1667
1662
1824
1991
1963
1713
1443
1421
1715
2169
2404
2108
1381
704
544
915
1319
1236
630
-10
-206
39
299
221
-113
-390
-398
-236
-167
-267
-416
-468
-428
-405
-496
-751
-1013
-1103
-997
-894
-987
-1252
-1488
-1587
-1718
-2053
-2479
-2623
-2406
-2270
-2614
-3168
-3201
-2505
-1837
-2046
-2929
-3361
-2682
-1607
-1475
-2636
-3991
-4304
-3583
-2925
-3157
-4012
-4590
-4386
-3707
-3158
-3040
-3337
-3834
-4215
-4239
-3933
-3568
-3440
-3541
-3649
-3632
-3568
-3569
-3562
-3405
-3179
-3150
-3461
-3896
-4141
-4121
-3968
-3856
-3840
-3995
-4327
-4664
-4711
-4444
-4256
-4549
-5203
-5547
-5152
-4386
-4004
-4334
-4925
-5183
-5045
-4914
-5004
-5063
-4866
-4589
-4658
-5077
-5388
-5238
-4841
-4755
-5196
-5759
-5888
-5392
-4677
-4359
-4637
-5217
-5553
-5402
-5028
-4961
-5425
-6129
-6500
-6320
-5893
-5665
-5815
-6136
-6341
-6378
-6370
-6446
-6650
-6991
-7398
-7679
-7616
-7215
-6797
-6710
-6973
-7226
-7190
-7002
-7003
-7319
-7723
-7912
-7905
-7875
-7829
-7669
-7435
-7428
-7793
-8182
-8098
-7575
-7300
-7884
-9010
-9672
-9314
-8428
-7973
-8344
-9017
-9284
-8991
-8500
-8207
-8213
-8420
-8735
-9032
-9142
-9002
-8754
-8617
-8626
-8630
-8535
-8396
-8332
-8341
-8321
-8262
-8213
-8215
-8235
-8231
-8293
-8424
-8394
-8006
-7461
-7286
-7706
-8297
-8353
-7713
-7007
-6945
-7501
-7918
-7618
-6889
-6518
-6900
-7621
-7967
-7761
-7439
-7362
-7467
-7461
-7239
-6950
-6636
-6168
-5548
-5129
-5292
-5913
-6424
-6433
-6192
-6254
-6694
-7056
-6944
-6483
-6061
-5741
-5270
-4597
-4171
-4424
-5155
-5666
-5571
-5254
-5367
-5990
-6552
-6581
-6198
-5908
-5805
-5499
-4914
-4508
-4807
-5697
-6365
-6286
-5812
-5720
-6248
-6834
-6865
-6380
-5875
-5626
-5549
-5523
-5625
-5925
-6228
-6265
-6093
-6021
-6175
-6322
-6283
-6175
-6166
-6135
-5800
-5250
-5029
-5550
-6413
-6814
-6420
-5788
-5717
-6301
-6933
-7036
-6588
-6023
-5667
-5572
-5648
-5814
-5956
-5873
-5564
-5282
-5305
-5539
-5620
-5322
-4812
-4369
-4012
-3655
-3463
-3824
-4810
-5890
-6475
-6676
-7166
-8316
-9642
-10311
-10030
-9322
-8821
-8647
-8502
-8215
-7910
-7765
-7711
-7524
-7187
-6952
-7041
-7404
-7677
-7534
-7083
-6753
-6881
-7313
-7564
-7382
-7022
-6918
-7090
-7280
-7340
-7489
-7927
-8434
-8595
-8441
-8488
-9028
-9639
-9625
-8911
-8217
-8280
-9042
-9788
-10006
-9952
-10189
-10887
-11631
-11912
-11632
-11128
-10783
-10682
-10611
-10351
-9910
-9470
-9288
-9500
-10009
-10507
-10650
-10368
-10013
-10056
-10580
-11097
-11020
-10344
-9742
-9851
-10610
-11342
-11445
-11003
-10597
-10594
-10830
-10929
-10816
-10766
-10843
-10813
-10451
-9955
-9807
-10155
-10541
-10459
-10009
-9865
-10384
-11062
-11135
-10570
-10204
-10694
-11551
-11753
-10971
-10110
-10195
-11128
-11759
-11341
-10457
-10211
-10919
-11800
-11901
-11182
-10374
-10122
-10434
-10800
-10781
-10413
-10076
-10091
-10425
-10783
-10869
-10656
-10372
-10206
-10237
-10423
-10673
-10903
-11014
-11052
-11205
-11565
-12013
-12302
-12274
-12088
-12007
-12129
-12358
-12591
-12858
-13126
-13365
-13645
-13950
-14173
-14099
-13748
-13457
-13516
-13819
-13938
-13643
-13139
-12810
-12795
-12911
-13004
-13122
-13286
-13405
-13394
-13359
-13535
-13985
-14505
-14735
-14474
-13843
-13172
-12742
-12631
-12671
-12612
-12357
-11945
-11593
-11493
-11715
-12106
-12280
-12006
-11388
-10790
-10447
-10326
-10301
-10297
-10288
-10084
-9531
-8815
-8406
-8601
-9091
-9257
-8902
-8475
-8426
-8702
-8893
-8801
-8544
-8301
-8032
-7681
-7309
-7011
-6746
-6448
-6238
-6275
-6469
-6504
-6267
-6044
-6169
-6507
-6523
-5973
-5239
-4924
-5119
-5291
-4903
-4050
-3398
-3428
-3965
-4415
-4385
-4102
-4058
-4408
-4773
-4742
-4322
-3913
-3698
-3436
-2886
-2347
-2383
-3093
-3880
-4133
-3955
-3956
-4377
-4780
-4634
-4093
-3736
-3752
-3704
-3231
-2668
-2744
-3584
-4454
-4604
-4164
-3896
-4200
-4612
-4458
-3715
-3089
-3069
-3333
-3299
-2940
-2779
-3152
-3656
-3702
-3290
-2952
-3002
-3152
-2964
-2486
-2173
-2258
-2457
-2458
-2431
-2830
-3639
-4291
-4260
-3696
-3204
-3139
-3249
-3081
-2578
-2080
-1996
-2389
-3039
-3699
-4191
-4374
-4155
-3597
-3057
-2900
-3144
-3413
-3238
-2594
-2061
-2184
-2787
-3016
-2295
-1095
-466
-833
-1500
-1516
-955
-784
-1581
-2709
-2989
-2136
-1047
-702
-1083
-1393
-1160
-705
-690
-1293
-2243
-3160
-3817
-4028
-3701
-2950
-2125
-1551
-1179
-778
-189
469
860
763
175
-621
-1166
-1140
-586
48
304
147
-81
52
637
1321
1700
1623
1308
1095
1085
1103
990
767
611
569
486
242
-48
-164
-107
-54
-138
-288
-330
-254
-210
-289
-414
-448
-462
-616
-958
-1357
-1575
-1529
-1338
-1225
-1363
-1729
-2065
-2158
-2000
-1858
-1966
-2174
-2173
-1848
-1431
-1282
-1432
-1669
-1760
-1689
-1622
-1714
-1982
-2210
-2117
-1573
-846
-481
-815
-1574
-2140
-2229
-2260
-2854
-4130
-5549
-6469
-6740
-6676
-6566
-6447
-6249
-5944
-5590
-5207
-4809
-4434
-4137
-4010
-4065
-4248
-4493
-4707
-4926
-5255
-5713
-6117
-6229
-6032
-5685
-5275
-4751
-4183
-3886
-4100
-4556
-4666
-4274
-4032
-4624
-5878
-6779
-6513
-5361
-4367
-4243
-4778
-5216
-5126
-4720
-4463
-4521
-4703
-4874
-5117
-5586
-6131
-6271
-5703
-4696
-3995
-4117
-4907
-5683
-5817
-5203
-4375
-4117
-4881
-6326
-7449
-7434
-6538
-5859
-6090
-6679
-6658
-5934
-5496
-6048
-6964
-7069
-6247
-5640
-6200
-7358
-7758
-7009
-6179
-6423
-7539
-8330
-8081
-7269
-6858
-7106
-7475
-7328
-6649
-5923
-5591
-5713
-6073
-6421
-6599
-6550
-6282
-5898
-5590
-5473
-5506
-5452
-5060
-4319
-3620
-3377
-3646
-4016
-4002
-3522
-2961
-2703
-2743
-2769
-2574
-2300
-2251
-2498
-2766
-2674
-2178
-1637
-1497
-1844
-2326
-2474
-2191
-1838
-1842
-2240
-2648
-2703
-2407
-2082
-2024
-2247
-2541
-2676
-2605
-2474
-2466
-2622
-2839
-2928
-2805
-2605
-2562
-2784
-3134
-3381
-3453
-3483
-3641
-3896
-4079
-4081
-4000
-3999
-4125
-4310
-4474
-4584
-4638
-4653
-4676
-4740
-4833
-4852
-4712
-4497
-4444
-4651
-4955
-5096
-4984
-4810
-4821
-5044
-5271
-5335
-5284
-5270
-5314
-5303
-5222
-5280
-5646
-6157
-6366
-6015
-5364
-4988
-5155
-5590
-5836
-5788
-5621
-5553
-5601
-5692
-5872
-6107
-6216
-6030
-5706
-5673
-6122
-6699
-6921
-6699
-6385
-6328
-6452
-6406
-6097
-5805
-5836
-6131
-6272
-5956
-5451
-5428
-6256
-7440
-7917
-7205
-6004
-5568
-6250
-7163
-7182
-6233
-5255
-5138
-5797
-6566
-7088
-7398
-7538
-7347
-6801
-6353
-6519
-7220
-7751
-7452
-6394
-5323
-4945
-5381
-6134
-6493
-6092
-5148
-4274
-4058
-4581
-5375
-5835
-5663
-5138
-4840
-5080
-5626
-5930
-5732
-5233
-4786
-4543
-4391
-4270
-4308
-4567
-4813
-4755
-4392
-4041
-3950
-4029
-4015
-3841
-3641
-3524
-3491
-3527
-3692
-3941
-4111
-4065
-3891
-3766
-3724
-3626
-3438
-3286
-3243
-3226
-3091
-2900
-2915
-3169
-3383
-3289
-2988
-2877
-3095
-3367
-3318
-2948
-2622
-2636
-2937
-3231
-3286
-3126
-2956
-2960
-3209
-3558
-3759
-3647
-3365
-3199
-3275
-3385
-3263
-2939
-2759
-2987
-3443
-3729
-3719
-3686
-3925
-4354
-4608
-4494
-4210
-4076
-4097
-4060
-3921
-3927
-4263
-4773
-5096
-5068
-4962
-5108
-5481
-5825
-5960
-5876
-5681
-5477
-5466
-5806
-6389
-6740
-6530
-6037
-5929
-6554
-7454
-7886
-7594
-7069
-6892
-7141
-7438
-7379
-6964
-6504
-6262
-6334
-6607
-6889
-7010
-6899
-6679
-6513
-6486
-6528
-6590
-6630
-6619
-6571
-6518
-6597
-6869
-7246
-7503
-7525
-7420
-7235
-6852
-6181
-5471
-5190
-5346
-5333
-4578
-3406
-2854
-3443
-4413
-4527
-3585
-2630
-2655
-3460
-4058
-4037
-4066
-4885
-6239
-7154
-7195
-6972
-7352
-8321
-9006
-8624
-7276
-5835
-4998
-4780
-4610
-4017
-3088
-2253
-1820
-1708
-1640
-1500
-1330
-1146
-857
-428
5
292
441
633
985
1437
1833
2107
2300
2461
2606
2739
2863
2948
2988
3023
3136
3371
3597
3628
3411
3079
2883
2921
3063
3089
2895
2581
2350
2318
2448
2618
2735
2697
2455
2111
1881
1930
2144
2206
1888
1356
1004
1079
1405
1560
1370
1024
860
1002
1272
1395
1225
884
600
496
501
429
182
-172
-413
-379
-147
15
-125
-535
-940
-1056
-927
-899
-1195
-1651
-1900
-1736
-1410
-1330
-1539
-1717
-1629
-1520
-1837
-2627
-3345
-3454
-3034
-2684
-2803
-3172
-3270
-2957
-2700
-3020
-3801
-4347
-4177
-3595
-3401
-3965
-4687
-4577
-3474
-2383
-2490
-3779
-4998
-5048
-4243
-3868
-4578
-5627
-5860
-5136
-4426
-4514
-4990
-4963
-4346
-4047
-4769
-6012
-6713
-6544
-6171
-6352
-6959
-7345
-7260
-7071
-7070
-7043
-6660
-6102
-5994
-6586
-7378
-7640
-7260
-6825
-6988
-7759
-8549
-8733
-8151
-7178
-6434
-6335
-6760
-7133
-6998
-6411
-5850
-5768
-6116
-6480
-6578
-6440
-6259
-6096
-5910
-5762
-5778
-5979
-6204
-6252
-6095
-5948
-6014
-6297
-6627
-6822
-6852
-6778
-6678
-6616
-6648
-6799
-6983
-7029
-6869
-6682
-6708
-6973
-7253
-7316
-7268
-7364
-7629
-7794
-7581
-7127
-6889
-7075
-7366
-7304
-6900
-6615
-6812
-7323
-7656
-7558
-7266
-7164
-7276
-7345
-7168
-6834
-6608
-6633
-6843
-7014
-7001
-6909
-6913
-7081
-7275
-7313
-7174
-7041
-7049
-7143
-7179
-7139
-7164
-7314
-7451
-7397
-7173
-6975
-6921
-6923
-6837
-6633
-6459
-6447
-6580
-6698
-6684
-6587
-6581
-6841
-7254
-7517
-7405
-7014
-6709
-6750
-7048
-7240
-7000
-6349
-5681
-5467
-5893
-6604
-6932
-6500
-5596
-4982
-5118
-5721
-6112
-5969
-5644
-5638
-6045
-6527
-6838
-7051
-7240
-7233
-6800
-6003
-5262
-4872
-4748
-4684
-4640
-4700
-4788
-4691
-4438
-4457
-5094
-6008
-6340
-5630
-4443
-3839
-4311
-5288
-5799
-5484
-4839
-4564
-4807
-5197
-5369
-5317
-5235
-5167
-5024
-4775
-4561
-4538
-4661
-4751
-4662
-4426
-4209
-4042
-3861
-3623
-3379
-3238
-3222
-3240
-3170
-3003
-2832
-2827
-3117
-3622
-4004
-3938
-3473
-3039
-3054
-3485
-3912
-3961
-3692
-3431
-3382
-3465
-3544
-3642
-3788
-3876
-3772
-3539
-3464
-3732
-4128
-4242
-3985
-3655
-3585
-3731
-3811
-3698
-3577
-3677
-3944
-4158
-4218
-4281
-4523
-4859
-5021
-4881
-4603
-4463
-4542
-4634
-4517
-4222
-4032
-4130
-4422
-4630
-4632
-4570
-4590
-4686
-4668
-4391
-3912
-3420
-3070
-2977
-3238
-3824
-4554
-5138
-5491
-5905
-6721
-7813
-8543
-8412
-7708
-7240
-7430
-7845
-7773
-7156
-6580
-6485
-6536
-6122
-5247
-4584
-4606
-4943
-4846
-4111
-3341
-3295
-4043
-4906
-5096
-4528
-3795
-3589
-4087
-4730
-4764
-4097
-3495
-3743
-4670
-5215
-4631
-3465
-2976
-3576
-4347
-4105
-2907
-2035
-2483
-3825
-4693
-4352
-3339
-2810
-3357
-4547
-5434
-5419
-4694
-4057
-4246
-5318
-6497
-6824
-6040
-4879
-4264
-4419
-4787
-4671
-4007
-3315
-3009
-3042
-3151
-3220
-3300
-3406
-3430
-3288
-3060
-2908
-2916
-3011
-3077
-3078
-3061
-3073
-3031
-2904
-2793
-2796
-2866
-2840
-2591
-2239
-2065
-2191
-2461
-2615
-2565
-2460
-2471
-2582
-2650
-2571
-2414
-2328
-2364
-2437
-2419
-2305
-2207
-2233
-2364
-2437
-2349
-2198
-2175
-2344
-2578
-2685
-2639
-2616
-2753
-3036
-3283
-3320
-3130
-2895
-2783
-2896
-3189
-3507
-3702
-3725
-3690
-3789
-4120
-4555
-4805
-4667
-4263
-3948
-3968
-4246
-4492
-4555
-4489
-4438
-4478
-4595
-4795
-5014
-5112
-5022
-4873
-4905
-5155
-5449
-5584
-5596
-5637
-5689
-5595
-5339
-5080
-5023
-5120
-5173
-5075
-4941
-4974
-5201
-5462
-5564
-5389
-5031
-4828
-5080
-5772
-6416
-6431
-5692
-4698
-4140
-4316
-4915
-5297
-5096
-4534
-4228
-4607
-5531
-6344
-6509
-6043
-5425
-5067
-4954
-4876
-4771
-4812
-5111
-5521
-5824
-6002
-6275
-6804
-7446
-7863
-7838
-7449
-7032
-6919
-7160
-7575
-7954
-8197
-8284
-8235
-8106
-7990
-8036
-8224
-8372
-8228
-7788
-7363
-7312
-7617
-7895
-7843
-7590
-7551
-7897
-8286
-8274
-7865
-7480
-7406
-7419
-7146
-6666
-6453
-6711
-7045
-6958
-6498
-6209
-6399
-6756
-6772
-6383
-5988
-5950
-6225
-6494
-6530
-6398
-6253
-6230
-6349
-6458
-6349
-5994
-5669
-5718
-6150
-6552
-6540
-6205
-5977
-6115
-6384
-6368
-5951
-5466
-5317
-5575
-5982
-6244
-6307
-6303
-6357
-6491
-6616
-6661
-6603
-6469
-6342
-6291
-6321
-6380
-6426
-6421
-6370
-6274
-6127
-6027
-6078
-6225
-6295
-6160
-5890
-5711
-5757
-5914
-5973
-5877
-5653
-5353
-5047
-4946
-5276
-5921
-6339
-6073
-5335
-4896
-5262
-6023
-6215
-5403
-4211
-3704
-4283
-5340
-5922
-5766
-5398
-5330
-5524
-5520
-5168
-4839
-4758
-4647
-4157
-3489
-3406
-4445
-6083
-7131
-6875
-5737
-4813
-4888
-5746
-6446
-6222
-5135
-4074
-4048
-5287
-7020
-8160
-8190
-7502
-6850
-6663
-6832
-7006
-6966
-6643
-6153
-5750
-5726
-6144
-6608
-6654
-6189
-5548
-5089
-4792
-4418
-3978
-3768
-3859
-3982
-3750
-3110
-2486
-2269
-2400
-2566
-2649
-2808
-3173
-3632
-4043
-4543
-5394
-6475
-7194
-7111
-6542
-6280
-6697
-7255
-7085
-6040
-4867
-4389
-4624
-4888
-4641
-4038
-3711
-4004
-4639
-5097
-5153
-5003
-4972
-5144
-5265
-5059
-4562
-4109
-4028
-4355
-4774
-4985
-5028
-5169
-5469
-5675
-5617
-5437
-5406
-5472
-5287
-4763
-4329
-4484
-5128
-5598
-5391
-4774
-4464
-4809
-5434
-5744
-5553
-5128
-4832
-4740
-4626
-4370
-4062
-3938
-4140
-4511
-4705
-4580
-4354
-4399
-4756
-5040
-4854
-4277
-3762
-3640
-3840
-4041
-4117
-4153
-4248
-4374
-4504
-4748
-5140
-5520
-5547
-5057
-4254
-3558
-3266
-3390
-3683
-3875
-3917
-3905
-3967
-4164
-4386
-4516
-4429
-4034
-3394
-2721
-2290
-2248
-2517
-2872
-3151
-3303
-3338
-3404
-3733
-4410
-5080
-5105
-4216
-2955
-2296
-2627
-3269
-3218
-2167
-810
26
225
274
530
892
1110
1137
1099
940
583
299
665
1959
3703
5046
5608
5769
6169
6910
7517
7473
6780
5862
5094
4645
4600
5022
5790
6569
6989
6980
6899
7124
7667
8123
8042
7433
6734
6431
6610
6904
6917
6707
6651
6866
7010
6684
6062
5824
6299
7008
7087
6279
5310
5111
5806
6669
6842
6176
5315
5050
5610
6442
6861
6739
6576
6942
7771
8353
8140
7382
6857
7006
7439
7530
7246
7138
7612
8348
8710
8531
8318
8501
8806
8610
7683
6597
6043
6133
6382
6296
5889
5580
5597
5797
5933
5899
5759
5590
5423
5259
5081
4933
4811
4655
4427
4075
3652
3252
2992
2926
3032
3273
3643
4013
4111
3749
3096
2549
2338
2297
2045
1491
936
745
1000
1425
1707
1739
1622
1504
1420
1345
1212
996
692
357
93
32
178
308
186
-262
-750
-867
-509
-101
-212
-902
-1578
-1583
-938
-334
-386
-1037
-1671
-1868
-1787
-1725
-1665
-1414
-1013
-843
-1105
-1443
-1294
-500
429
842
548
5
-106
518
1539
2209
2003
1091
333
506
1533
2609
3029
2869
2790
3221
3936
4449
4651
4815
5099
5280
5108
4775
4793
5371
6053
6197
5772
5417
5688
6393
6750
6382
5728
5577
6128
6758
6780
6202
5671
5696
6076
6203
5853
5456
5538
6041
6345
6063
5684
6037
7142
7996
7724
6704
6331
7322
8686
8896
7741
6560
6600
7490
7909
7314
6502
6431
6934
7144
6659
6069
6018
6380
6551
6296
5981
6011
6370
6779
7034
7055
6763
6195
5650
5503
5710
5688
4972
3913
3398
3866
4844
5374
4976
4014
3095
2485
2024
1409
468
-815
-2265
-3423
-3850
-3518
-2870
-2422
-2157
-1631
-632
447
1015
1018
926
1062
1131
679
-130
-667
-630
-454
-720
-1280
-1420
-851
-242
-461
-1430
-2193
-2080
-1481
-1324
-1945
-2776
-3061
-2667
-2037
-1615
-1522
-1674
-1868
-1786
-1337
-816
-756
-1216
-1616
-1501
-1146
-1248
-1941
-2545
-2404
-1748
-1373
-1563
-1794
-1580
-1132
-954
-1103
-1208
-1130
-1214
-1770
-2428
-2517
-1927
-1265
-1084
-1248
-1160
-507
479
1360
1923
2171
2208
2209
2439
2994
3589
3761
3473
3297
3713
4477
4907
4750
4491
4821
5688
6351
6315
5931
5916
6366
6695
6578
6445
6838
7559
7763
7117
6318
6298
6957
7249
6596
5753
6021
7568
9064
9199
8165
7423
7897
8925
9087
7920
6397
5764
6242
6969
7110
6609
6043
5829
5954
6194
6335
6254
5970
5693
5700
6032
6411
6621
6738
6990
7345
7462
7038
6267
5739
5730
5988
5999
5535
4865
4374
4239
4328
4372
4173
3744
3302
3112
3236
3438
3419
3085
2696
2567
2708
2831
2689
2412
2338
2562
2762
2586
2052
1628
1691
2099
2380
2271
2007
1973
2292
2687
2855
2748
2575
2565
2702
2831
2823
2723
2770
3105
3545
3765
3614
3329
3290
3559
3779
3601
3132
2837
3016
3493
3800
3635
3201
2985
3258
3802
4062
3712
3063
2758
3093
3684
3866
3420
2850
2769
3217
3655
3573
3108
2755
2768
2943
2881
2511
2130
1985
1958
1804
1504
1309
1459
1830
2019
1871
1613
1600
1867
2102
1960
1440
858
553
638
933
1030
673
80
-185
233
986
1238
641
-173
-292
407
967
442
-887
-1789
-1450
-442
-77
-917
-2105
-2395
-1534
-479
-281
-909
-1389
-1058
-287
-4
-603
-1547
-2057
-1933
-1577
-1428
-1557
-1742
-1731
-1446
-1000
-615
-497
-683
-953
-1055
-1002
-1047
-1313
-1603
-1602
-1294
-957
-839
-912
-982
-903
-672
-374
-148
-141
-341
-527
-399
105
643
769
439
33
-59
157
343
274
92
34
138
179
33
-167
-181
38
315
424
302
36
-252
-387
-293
-108
-190
-731
-1390
-1569
-1101
-539
-507
-966
-1304
-1168
-880
-916
-1259
-1452
-1322
-1244
-1532
-1926
-1916
-1446
-1014
-1009
-1198
-1112
-653
-244
-236
-534
-756
-769
-731
-780
-853
-833
-771
-745
-736
-638
-425
-213
-32
159
425
678
782
820
999
1360
1720
1931
2174
2734
3527
4010
3799
3158
2670
2459
1987
800
-717
-1741
-2010
-2023
-2196
-2260
-1721
-696
77
224
188
531
1104
1306
978
676
935
1530
1936
2039
2239
2718
3012
2607
1650
813
536
562
390
-102
-541
-503
63
824
1408
1653
1717
1856
2136
2408
2459
2288
2110
2095
2193
2282
2270
2144
1962
1820
1840
2027
2141
1926
1502
1269
1493
1936
2145
1973
1715
1725
2001
2267
2316
2214
2105
2065
2100
2209
2361
2426
2330
2180
2126
2174
2171
2047
1955
2052
2243
2250
1929
1563
1507
1729
1874
1652
1178
891
1025
1354
1500
1374
1265
1428
1744
1853
1593
1236
1157
1389
1547
1342
931
731
897
1167
1169
872
529
358
321
259
183
211
328
377
271
186
336
729
1047
944
461
35
-47
112
123
-244
-764
-1009
-757
-246
80
13
-241
-341
-190
19
17
-236
-535
-696
-681
-581
-444
-190
187
507
571
371
137
131
292
275
-173
-867
-1345
-1340
-1026
-839
-990
-1237
-1252
-1016
-822
-934
-1266
-1540
-1593
-1578
-1731
-2056
-2280
-2117
-1627
-1078
-695
-523
-431
-329
-178
-5
101
42
-204
-486
-602
-460
-208
-37
37
155
404
617
648
544
547
797
1116
1215
1057
899
1066
1539
1976
2030
1710
1333
1242
1449
1668
1644
1414
1236
1307
1548
1711
1642
1460
1367
1424
1515
1455
1201
895
706
670
675
640
538
458
459
510
553
546
517
521
558
594
550
400
211
107
65
17
-117
-310
-456
-490
-475
-482
-453
-300
-99
-24
-133
-225
-48
332
533
310
-180
-509
-416
-39
185
-11
-489
-804
-590
2
414
198
-511
-1075
-971
-333
237
381
219
89
93
145
270
550
801
619
-164
-1034
-1250
-642
91
153
-379
-666
-164
753
1265
1098
714
636
807
788
413
-12
-106
146
458
596
525
372
290
401
687
926
759
132
-508
-598
-87
471
541
182
-90
138
701
1145
1233
1132
1124
1280
1502
1683
1831
1999
2199
2372
2463
2437
2355
2349
2548
2906
3202
3223
3003
2877
3138
3651
3938
3680
3125
2885
3238
3791
3903
3468
3055
3185
3724
4030
3704
3104
2928
3419
4104
4339
4012
3527
3385
3654
3986
3979
3630
3247
3246
3720
4293
4446
3961
3160
2560
2311
1997
1121
-212
-1370
-1799
-1611
-1427
-1596
-1824
-1604
-863
-104
229
177
112
209
296
256
244
473
800
813
451
144
338
874
1164
900
414
131
124
173
189
360
722
975
831
476
439
930
1583
1821
1419
644
-53
-399
-244
328
930
1032
514
-67
18
913
1929
2306
1977
1568
1688
2280
2811
2834
2322
1643
1246
1286
1477
1273
469
-354
-293
913
2435
3119
2666
1916
1890
2669
3426
3424
2800
2245
2224
2643
3217
3821
4484
5042
5241
5058
4786
4791
5118
5432
5401
5049
4759
4827
5142
5399
5474
5501
5663
5876
5859
5569
5262
5211
5403
5595
5591
5429
5237
5077
4962
4900
4908
4902
4716
4329
3951
3827
3970
4092
4001
3780
3649
3625
3493
3159
2854
2844
3023
2919
2334
1702
1624
2120
2552
2358
1723
1318
1442
1686
1532
1031
657
707
942
999
843
726
780
876
861
753
644
555
421
243
97
14
14
127
331
475
360
28
-200
-75
317
607
594
372
167
26
-73
-21
288
698
777
303
-397
-722
-434
149
503
392
-63
-608
-935
-867
-549
-384
-631
-992
-840
-55
723
744
141
-118
580
1593
1669
415
-1174
-1807
-1216
-320
-81
-619
-1240
-1307
-824
-180
275
457
418
195
-124
-333
-210
278
888
1271
1297
1164
1225
1605
2072
2349
2471
2681
3032
3281
3265
3184
3384
3833
4121
3978
3596
3393
3458
3494
3297
3043
3007
3115
3063
2805
2604
2641
2719
2530
2125
1891
2053
2368
2475
2311
2097
2037
2082
2067
1934
1731
1476
1158
827
625
598
602
446
109
-159
-82
241
444
253
-177
-447
-365
-200
-354
-831
-1244
-1306
-1152
-1160
-1472
-1819
-1884
-1629
-1300
-1129
-1183
-1321
-1336
-1155
-892
-790
-976
-1302
-1483
-1432
-1339
-1439
-1685
-1803
-1682
-1547
-1678
-1992
-2069
-1734
-1370
-1540
-2237
-2718
-2306
-1284
-774
-1435
-2585
-2942
-2057
-921
-797
-1741
-2682
-2629
-1785
-1121
-1298
-2136
-2995
-3344
-3084
-2454
-1877
-1662
-1726
-1679
-1257
-678
-402
-552
-843
-1024
-1215
-1590
-1939
-1818
-1142
-356
28
17
34
360
831
1116
1177
1224
1468
1879
2214
2345
2268
2066
1777
1332
682
-50
-666
-998
-1056
-890
-516
75
746
1309
1723
2163
2767
3415
3798
3823
3730
3796
4028
4215
4222
4129
4069
3984
3772
3539
3522
3790
4067
4077
3898
3847
4043
4187
3973
3524
3265
3364
3510
3350
2984
2833
2967
2985
2527
1850
1570
1927
2460
2561
2225
2018
2317
2818
2930
2474
1874
1614
1704
1711
1366
913
826
1284
1951
2307
2166
1844
1776
2031
2274
2135
1612
1088
921
1133
1437
1530
1346
1084
997
1171
1480
1662
1576
1372
1397
1832
2438
2776
2689
2460
2369
2252
1747
908
345
576
1301
1679
1309
693
590
1069
1566
1705
1598
1497
1425
1359
1536
2206
3004
3146
2390
1463
1298
1852
2179
1553
387
-246
175
1135
1765
1728
1294
943
959
1310
1717
1776
1296
609
393
1057
2243
3079
3007
2277
1702
1794
2300
2639
2477
2007
1693
1731
1931
2015
1893
1722
1717
1880
2052
2063
1963
1957
2141
2379
2427
2245
2042
2049
2211
2259
2094
1932
1980
2175
2277
2184
2030
1964
1972
1934
1857
1845
1870
1818
1699
1696
1901
2034
1728
1025
442
477
1020
1459
1443
1274
1482
2150
2819
3066
2982
2958
3078
2996
2514
1961
1855
2251
2611
2479
2060
1945
2391
3021
3292
3112
2841
2792
2896
2943
2897
2890
3006
3114
3072
2950
2952
3113
3242
3138
2908
2852
3064
3303
3274
3032
2921
3065
3203
3061
2883
3060
3514
3611
2956
2113
2059
2928
3736
3493
2475
1953
2711
4154
4967
4506
3366
2631
2795
3434
3809
3520
2748
2047
1891
2270
2783
3052
3059
3043
3138
3266
3362
3568
3985
4394
4433
4037
3675
3803
4318
4717
4696
4489
4513
4809
5070
5159
5308
5739
6246
6380
6055
5647
5573
5808
5994
5860
5489
5187
5126
5242
5365
5323
5009
4527
4185
4192
4378
4328
3861
3289
3094
3350
3672
3665
3357
3095
3043
3007
2751
2336
2028
1976
1997
1798
1334
878
760
978
1215
1100
553
-109
-458
-385
-189
-240
-592
-974
-1116
-1017
-870
-850
-948
-1089
-1266
-1533
-1816
-1956
-1899
-1834
-1995
-2364
-2620
-2505
-2151
-1956
-2164
-2598
-2941
-3080
-3069
-2939
-2679
-2466
-2571
-3038
-3502
-3540
-3299
-3289
-3753
-4334
-4554
-4383
-4121
-3940
-3727
-3457
-3388
-3739
-4252
-4499
-4429
-4481
-4976
-5641
-5888
-5540
-4944
-4535
-4387
-4254
-3988
-3725
-3765
-4289
-5189
-6191
-7106
-7987
-8946
-9881
-10346
-9936
-8838
-7638
-6753
-5919
-4561
-2589
-667
336
218
-392
-608
-39
901
1449
1314
1043
1421
2571
3733
4027
3471
2913
3030
3592
3810
3401
2936
3086
3796
4380
4377
4039
3869
3964
4090
4070
4022
4022
3957
3776
3707
3944
4316
4411
4136
3899
4072
4421
4412
3924
3418
3277
3301
3059
2557
2292
2665
3465
4171
4473
4457
4316
4226
4337
4751
5290
5470
5005
4249
3999
4623
5649
6294
6176
5668
5384
5570
6040
6433
6460
6114
5687
5588
6015
6757
7275
7338
7223
7379
7816
8096
7957
7760
8035
8694
9063
8741
8127
7998
8487
8931
8870
8588
8697
9165
9411
9068
8544
8445
8747
8901
8553
8013
7915
8445
9121
9279
8622
7517
6774
6887
7459
7521
6575
5298
4865
5540
6302
6069
5041
4442
4946
5867
6122
5563
4926
4719
4722
4455
4013
3802
3839
3669
3138
2721
2905
3459
3732
3475
3059
2967
3121
3108
2728
2237
1964
1921
1929
1907
1899
1913
1955
2093
2311
2421
2109
1353
608
491
1049
1559
1302
402
-164
449
2003
3257
3293
2610
2675
4277
6596
7961
7701
6843
6873
8105
9388
9653
9126
8857
9325
9970
10069
9747
9730
10298
10845
10649
9722
8795
8449
8520
8400
7713
6626
5570
4830
4357
3930
3453
2991
2592
2201
1730
1317
1267
1730
2348
2569
2353
2241
2753
3695
4295
4201
3931
4254
5196
6022
6172
5935
6136
7078
8263
9038
9301
9496
9998
10749
11401
11739
11840
11965
12274
12650
12830
12745
12672
12931
13453
13759
13463
12827
12477
12713
13122
13070
12478
11839
11635
11955
12501
12882
12864
12426
11833
11545
11855
12372
12300
11343
10068
9447
9890
10860
11501
11461
11046
10835
11172
11872
12333
12082
11237
10478
10465
11078
11490
11121
10264
9760
10002
10592
10947
10927
10789
10706
10640
10588
10752
11131
11323
11020
10441
10162
10404
10750
10589
9917
9313
9227
9467
9466
8960
8262
7951
8263
8843
9071
8635
7849
7390
7575
8058
8179
7633
6777
6192
6095
6301
6516
6657
6810
6942
6901
6650
6357
6276
6460
6628
6475
6045
5742
5946
6554
7001
6874
6427
6308
6792
7412
7487
6887
6194
6047
6467
6859
6681
5971
5276
5097
5410
5730
5560
4993
4601
4758
5159
5207
4765
4366
4472
4823
4754
4124
3556
3605
4002
3997
3433
2891
2873
3203
3398
3372
3476
3894
4354
4603
4750
5000
5204
4952
4170
3242
2545
2026
1392
532
-363
-1016
-1274
-1079
-517
48
191
-22
-23
624
1649
2302
2253
1974
2008
2186
2017
1486
1146
1294
1449
1013
299
171
895
1746
1911
1600
1706
2420
2906
2407
1342
879
1399
1871
1122
-648
-1902
-1457
133
1138
549
-877
-1515
-678
687
1107
272
-779
-986
-415
65
-87
-511
-591
-359
-403
-972
-1673
-1974
-1882
-1852
-2171
-2589
-2680
-2269
-1597
-1073
-915
-1040
-1225
-1292
-1234
-1202
-1287
-1402
-1392
-1229
-1072
-1041
-1081
-1050
-858
-635
-593
-754
-902
-807
-472
-194
-230
-470
-513
-154
311
362
-138
-732
-874
-517
-210
-471
-1152
-1561
-1268
-590
-255
-586
-1167
-1372
-1053
-697
-832
-1389
-1831
-1800
-1494
-1391
-1654
-2039
-2233
-2227
-2243
-2461
-2832
-3187
-3409
-3496
-3512
-3492
-3438
-3421
-3570
-3899
-4169
-4101
-3734
-3556
-3976
-4728
-5021
-4422
-3520
-3358
-4187
-5130
-5179
-4397
-3773
-4010
-4720
-4980
-4481
-3907
-4025
-4717
-5147
-4824
-4214
-4197
-4901
-5551
-5415
-4670
-4154
-4282
-4591
-4378
-3650
-3081
-3147
-3551
-3654
-3385
-3291
-3810
-4686
-5232
-5097
-4626
-4430
-4697
-5016
-4867
-4195
-3523
-3440
-3946
-4455
-4465
-4065
-3783
-3926
-4239
-4285
-3963
-3584
-3461
-3559
-3657
-3679
-3730
-3878
-4005
-3927
-3610
-3293
-3269
-3537
-3773
-3619
-3160
-2870
-3063
-3452
-3479
-3021
-2567
-2584
-2858
-2792
-2248
-1787
-1969
-2567
-2824
-2380
-1756
-1663
-2076
-2275
-1793
-1063
-861
-1344
-1879
-1859
-1468
-1412
-1999
-2695
-2791
-2285
-1890
-2113
-2660
-2735
-2003
-1022
-652
-1107
-1762
-1863
-1335
-801
-836
-1366
-1802
-1712
-1309
-1043
-1116
-1352
-1464
-1392
-1243
-1067
-860
-716
-744
-858
-806
-501
-196
-210
-485
-662
-550
-326
-264
-382
-503
-523
-538
-619
-659
-559
-460
-589
-963
-1366
-1524
-1412
-1204
-1102
-1171
-1220
-1070
-802
-691
-966
-1392
-1377
-753
-190
-442
-1312
-1688
-872
422
731
-358
-1626
-1644
-468
470
123
-986
-1566
-1124
-371
-191
-629
-1047
-999
-686
-556
-726
-991
-1129
-1105
-991
-842
-714
-657
-687
-793
-922
-1013
-1100
-1231
-1337
-1370
-1338
-1285
-1285
-1423
-1654
-1795
-1745
-1603
-1617
-1926
-2356
-2588
-2487
-2229
-2107
-2224
-2397
-2367
-2081
-1708
-1488
-1527
-1801
-2168
-2428
-2437
-2229
-2056
-2150
-2503
-2825
-2817
-2536
-2333
-2478
-2895
-3187
-3035
-2514
-1989
-1802
-1968
-2183
-2154
-1830
-1426
-1207
-1319
-1754
-2422
-3168
-3783
-4160
-4432
-4887
-5607
-6311
-6642
-6581
-6447
-6444
-6411
-6062
-5450
-4961
-4843
-4865
-4642
-4152
-3713
-3548
-3567
-3638
-3791
-4047
-4188
-3984
-3604
-3572
-4085
-4554
-4343
-3664
-3406
-3939
-4549
-4291
-3313
-2702
-3084
-3792
-3725
-2759
-1912
-2063
-2955
-3687
-3837
-3704
-3599
-3444
-3028
-2507
-2297
-2521
-2866
-2949
-2764
-2622
-2784
-3274
-3871
-4192
-3927
-3104
-2167
-1662
-1744
-2031
-2089
-1915
-1900
-2272
-2807
-3098
-3065
-2957
-3004
-3136
-3173
-3061
-2905
-2806
-2719
-2608
-2505
-2446
-2310
-1955
-1504
-1290
-1518
-1935
-2115
-1892
-1512
-1332
-1391
-1416
-1212
-847
-527
-338
-208
-32
226
501
673
693
667
770
1014
1216
1169
895
640
581
603
497
275
177
349
590
555
186
-229
-349
-150
89
120
-66
-250
-259
-119
-18
-145
-499
-915
-1227
-1438
-1639
-1779
-1716
-1446
-1213
-1315
-1709
-2000
-1892
-1569
-1481
-1816
-2311
-2636
-2737
-2773
-2807
-2798
-2762
-2832
-3038
-3221
-3252
-3319
-3640
-4004
-3868
-3041
-2211
-2318
-3404
-4417
-4314
-3249
-2396
-2628
-3648
-4440
-4390
-3741
-3112
-2851
-2911
-3131
-3384
-3490
-3290
-2828
-2416
-2406
-2862
-3442
-3682
-3391
-2823
-2477
-2616
-2976
-3016
-2541
-1916
-1643
-1771
-1872
-1636
-1264
-1159
-1319
-1376
-1205
-1119
-1353
-1571
-1215
-325
305
52
-712
-989
-374
510
763
225
-361
-309
316
862
925
642
447
539
771
884
782
599
512
555
648
678
642
612
627
629
533
325
132
108
291
583
830
924
874
838
981
1276
1415
1154
601
172
139
327
387
254
220
455
750
767
538
431
634
884
803
416
125
195
470
649
702
845
1188
1517
1553
1268
925
751
731
699
554
342
189
212
456
858
1252
1440
1336
1058
838
811
907
921
747
473
288
306
498
791
1116
1395
1503
1374
1114
945
991
1149
1209
1108
973
935
983
1004
986
1031
1162
1231
1099
860
781
951
1140
1021
613
311
456
897
1156
986
696
743
1175
1566
1543
1236
1089
1310
1650
1743
1536
1264
1116
1073
1023
925
831
716
505
190
-87
-197
-176
-205
-367
-587
-682
-593
-419
-320
-366
-496
-600
-617
-543
-388
-144
186
560
871
973
802
452
71
-290
-766
-1518
-2487
-3334
-3724
-3614
-3275
-2984
-2799
-2546
-2064
-1361
-639
-90
207
335
446
647
901
1082
1133
1134
1200
1329
1405
1348
1255
1279
1448
1623
1656
1567
1526
1634
1783
1795
1632
1465
1483
1678
1816
1701
1406
1192
1235
1423
1470
1279
1071
1127
1422
1656
1596
1353
1239
1358
1518
1480
1286
1190
1337
1587
1714
1647
1526
1511
1589
1642
1592
1478
1398
1396
1412
1392
1378
1478
1693
1859
1795
1554
1436
1602
1845
1837
1547
1294
1348
1572
1616
1415
1265
1374
1575
1564
1360
1291
1542
1891
1986
1775
1543
1538
1708
1849
1854
1756
1619
1471
1372
1390
1507
1562
1437
1222
1102
1151
1243
1197
990
771
683
715
738
631
421
262
273
391
453
359
177
78
128
208
151
-61
-282
-373
-341
-300
-342
-464
-583
-676
-745
-787
-779
-754
-776
-878
-981
-954
-741
-487
-418
-586
-810
-854
-667
-460
-482
-732
-987
-1074
-996
-899
-881
-896
-878
-812
-721
-639
-581
-530
-447
-310
-167
-163
-338
-573
-653
-530
-373
-363
-452
-429
-201
70
185
124
75
157
246
165
-55
-178
-45
249
461
463
383
418
603
814
890
812
708
685
731
770
767
778
849
926
946
901
866
871
846
725
585
578
719
846
803
654
623
780
939
872
609
400
408
532
553
431
327
365
462
491
440
395
378
304
149
4
-21
31
24
-96
-210
-183
-16
170
267
267
209
160
186
301
412
383
182
-30
-71
61
177
128
-4
-30
115
304
400
393
361
330
265
177
143
191
236
177
65
66
249
465
487
291
123
206
443
550
379
108
18
157
314
291
141
79
192
354
382
272
179
215
310
318
211
120
173
303
347
249
154
225
402
462
299
104
141
403
583
442
134
30
284
623
642
288
-87
-137
123
351
286
-8
-256
-284
-158
-82
-193
-430
-647
-720
-653
-552
-537
-625
-722
-712
-567
-407
-375
-472
-554
-512
-406
-398
-548
-726
-762
-663
-596
-677
-803
-778
-605
-483
-551
-715
-753
-618
-502
-560
-697
-695
-485
-224
-108
-113
-98
23
189
309
371
468
693
1039
1379
1546
1446
1128
735
314
-242
-1028
-1965
-2819
-3392
-3654
-3695
-3581
-3343
-2988
-2538
-2034
-1501
-978
-514
-141
130
285
320
296
318
425
540
548
421
277
255
392
603
777
851
852
863
951
1103
1224
1242
1205
1243
1404
1600
1696
1675
1649
1703
1823
1925
1975
1997
1997
1970
1960
2041
2207
2321
2257
2061
1930
2013
2207
2297
2236
2183
2298
2533
2682
2639
2515
2497
2636
2780
2770
2622
2514
2614
2886
3124
3149
3001
2905
3012
3226
3302
3172
3003
3005
3160
3276
3229
3116
3098
3202
3334
3392
3366
3293
3212
3173
3209
3295
3332
3251
3135
3123
3239
3371
3386
3311
3259
3278
3289
3218
3103
3027
3024
3032
2961
2813
2675
2631
2658
2685
2626
2490
2350
2275
2252
2203
2091
1954
1867
1834
1786
1677
1538
1443
1418
1398
1312
1140
950
843
838
889
884
764
574
440
448
538
604
568
470
424
455
478
433
358
318
312
256
122
9
39
177
254
172
23
-10
129
297
348
281
207
196
222
230
232
249
275
271
258
284
357
421
420
376
341
344
374
379
332
260
223
279
415
502
443
303
274
454
684
725
551
384
432
640
801
805
739
713
715
702
686
721
779
778
700
623
643
745
830
853
854
866
885
885
870
860
830
751
651
591
607
679
732
749
763
824
930
1027
1051
994
917
896
961
1032
1018
914
788
723
724
741
710
615
515
480
535
646
711
673
610
640
767
867
822
693
652
784
949
966
805
653
671
820
906
793
550
370
391
586
799
867
778
655
637
750
876
901
831
750
703
647
568
545
635
755
752
601
466
523
734
903
901
811
776
833
886
859
800
801
865
913
896
846
845
926
1039
1099
1063
963
899
944
1062
1150
1155
1122
1137
1224
1317
1353
1326
1272
1213
1177
1213
1344
1505
1569
1471
1294
1175
1180
1200
1101
892
700
621
629
643
640
673
755
821
825
801
802
824
803
752
767
889
1010
998
866
771
819
929
939
832
726
695
680
618
567
635
762
762
559
302
229
371
515
497
400
408
568
778
932
1054
1219
1403
1518
1554
1617
1842
2246
2704
3070
3237
3146
2812
2330
1820
1295
634
-262
-1257
-2016
-2301
-2180
-1928
-1742
-1550
-1187
-633
-32
463
800
1022
1147
1174
1156
1190
1314
1472
1542
1496
1423
1441
1570
1704
1734
1676
1665
1786
1952
1995
1863
1687
1641
1752
1879
1913
1908
1958
2055
2094
2054
2025
2059
2073
1983
1881
1921
2094
2186
2049
1845
1864
2128
2328
2191
1849
1669
1821
2098
2201
2088
1940
1898
1943
1998
2069
2164
2196
2087
1905
1822
1909
2050
2067
1958
1879
1937
2046
2083
2025
1997
2091
2232
2287
2227
2150
2166
2246
2266
2186
2106
2121
2190
2182
2083
2023
2110
2257
2273
2129
1995
2012
2101
2075
1912
1777
1796
1864
1807
1602
1423
1426
1522
1503
1301
1034
895
943
1049
1037
836
562
396
416
509
498
355
205
140
92
-45
-240
-326
-255
-218
-412
-768
-987
-884
-636
-590
-855
-1183
-1292
-1173
-1055
-1092
-1213
-1306
-1352
-1421
-1514
-1510
-1348
-1169
-1178
-1395
-1573
-1463
-1046
-540
-176
23
182
436
811
1203
1464
1522
1431
1326
1332
1443
1543
1547
1478
1432
1450
1496
1511
1477
1408
1317
1220
1159
1168
1213
1224
1162
1063
1007
1025
1065
1051
946
793
695
699
778
831
784
661
551
512
512
466
364
288
320
437
530
504
359
183
106
164
268
281
130
-95
-217
-173
-74
-86
-229
-356
-347
-254
-226
-312
-400
-383
-302
-305
-434
-596
-683
-709
-753
-827
-860
-809
-743
-750
-811
-845
-823
-818
-904
-1045
-1139
-1169
-1197
-1259
-1311
-1289
-1227
-1243
-1367
-1485
-1481
-1386
-1357
-1479
-1639
-1654
-1484
-1316
-1352
-1580
-1782
-1791
-1689
-1698
-1901
-2126
-2168
-2052
-2001
-2146
-2351
-2378
-2196
-2019
-2052
-2236
-2364
-2321
-2198
-2150
-2196
-2244
-2264
-2326
-2453
-2538
-2467
-2272
-2159
-2281
-2542
-2686
-2543
-2243
-2058
-2155
-2434
-2637
-2603
-2396
-2251
-2306
-2489
-2605
-2538
-2377
-2285
-2323
-2392
-2365
-2249
-2156
-2171
-2244
-2289
-2286
-2290
-2343
-2386
-2325
-2212
-2162
-2208
-2263
-2211
-2075
-1985
-2032
-2150
-2200
-2114
-1976
-1900
-1934
-2018
-2074
-2096
-2119
-2187
-2288
-2368
-2400
-2417
-2479
-2594
-2707
-2746
-2696
-2626
-2614
-2670
-2729
-2745
-2723
-2686
-2639
-2577
-2508
-2502
-2602
-2727
-2758
-2684
-2606
-2640
-2773
-2886
-2891
-2826
-2792
-2835
-2913
-2956
-2939
-2914
-2932
-2990
-3019
-2946
-2765
-2575
-2499
-2552
-2612
-2559
-2379
-2189
-2094
-2061
-1968
-1716
-1325
-929
-711
-787
-1119
-1555
-1980
-2453
-3122
-4015
-4913
-5512
-5708
-5662
-5599
-5580
-5468
-5123
-4578
-4024
-3605
-3337
-3149
-2974
-2816
-2693
-2566
-2390
-2205
-2144
-2258
-2439
-2503
-2405
-2325
-2408
-2591
-2665
-2521
-2277
-2104
-2043
-2013
-1950
-1900
-1914
-1957
-1961
-1936
-1931
-1989
-2081
-2142
-2130
-2039
-1918
-1828
-1812
-1841
-1831
-1749
-1637
-1572
-1575
-1607
-1614
-1572
-1491
-1416
-1403
-1472
-1535
-1490
-1345
-1240
-1287
-1404
-1386
-1176
-979
-1031
-1308
-1535
-1508
-1300
-1147
-1195
-1340
-1375
-1236
-1015
-877
-872
-930
-945
-866
-768
-744
-804
-850
-793
-663
-593
-653
-759
-764
-639
-505
-485
-566
-625
-574
-450
-340
-310
-332
-353
-337
-277
-192
-138
-177
-314
-466
-531
-512
-504
-601
-773
-913
-953
-916
-876
-853
-829
-824
-883
-1010
-1121
-1123
-1050
-1049
-1210
-1468
-1647
-1674
-1625
-1620
-1696
-1802
-1891
-1949
-1986
-1970
-1909
-1906
-2023
-2180
-2240
-2167
-2083
-2111
-2214
-2247
-2178
-2116
-2130
-2147
-2082
-1989
-2010
-2162
-2275
-2213
-2074
-2072
-2234
-2347
-2225
-1964
-1821
-1903
-2045
-2030
-1857
-1694
-1675
-1780
-1895
-1952
-1936
-1865
-1756
-1696
-1756
-1866
-1873
-1697
-1431
-1272
-1310
-1446
-1507
-1431
-1298
-1201
-1172
-1193
-1242
-1301
-1347
-1353
-1303
-1225
-1148
-1102
-1120
-1182
-1208
-1113
-921
-783
-846
-1057
-1189
-1092
-869
-778
-939
-1205
-1335
-1250
-1096
-1027
-1052
-1098
-1096
-1047
-972
-885
-841
-883
-997
-1086
-1075
-1028
-1076
-1211
-1280
-1190
-1026
-958
-1022
-1074
-1010
-910
-922
-1085
-1289
-1420
-1465
-1471
-1462
-1443
-1446
-1510
-1595
-1584
-1445
-1290
-1282
-1449
-1633
-1655
-1508
-1345
-1325
-1434
-1551
-1556
-1451
-1354
-1360
-1452
-1548
-1580
-1536
-1496
-1503
-1507
-1443
-1316
-1221
-1264
-1407
-1527
-1535
-1458
-1394
-1390
-1424
-1461
-1471
-1429
-1336
-1225
-1199
-1321
-1512
-1597
-1506
-1341
-1258
-1281
-1295
-1197
-1049
-986
-1041
-1102
-1059
-963
-935
-1045
-1195
-1215
-1055
-822
-710
-815
-1020
-1125
-1001
-740
-581
-652
-859
-978
-893
-725
-676
-789
-937
-976
-931
-922
-991
-1042
-1007
-951
-995
-1152
-1292
-1304
-1209
-1111
-1082
-1123
-1159
-1130
-990
-771
-619
-666
-874
-1049
-1047
-941
-909
-1005
-1114
-1133
-1094
-1081
-1103
-1115
-1118
-1185
-1296
-1321
-1193
-1028
-999
-1092
-1128
-974
-733
-588
-561
-510
-357
-187
-120
-151
-153
-37
194
500
820
1049
1039
747
322
-41
-340
-784
-1562
-2572
-3461
-3946
-4021
-3885
-3715
-3550
-3287
-2831
-2172
-1427
-796
-422
-286
-244
-160
-33
55
73
58
50
36
-10
-49
-21
70
148
160
145
174
256
322
319
281
280
331
402
437
428
419
431
450
459
472
512
579
634
650
640
642
652
643
593
534
517
538
546
518
489
520
609
699
727
690
648
640
683
759
824
854
860
882
958
1052
1096
1073
1034
1056
1150
1234
1239
1191
1182
1244
1313
1310
1241
1209
1265
1341
1366
1365
1435
1593
1712
1675
1532
1467
1567
1723
1772
1689
1618
1636
1668
1625
1553
1567
1666
1664
1438
1146
1064
1285
1560
1574
1305
1037
1005
1142
1187
980
666
507
575
709
712
563
424
441
564
616
482
212
-34
-153
-159
-145
-182
-272
-369
-415
-388
-325
-286
-310
-356
-361
-330
-328
-414
-527
-556
-461
-363
-389
-545
-685
-663
-515
-414
-461
-592
-667
-627
-524
-446
-430
-452
-496
-545
-591
-588
-533
-481
-503
-580
-615
-531
-358
-213
-181
-235
-285
-267
-188
-140
-196
-345
-455
-427
-272
-144
-171
-307
-353
-167
156
329
207
-43
-96
149
448
485
220
-75
-146
4
141
121
5
-40
22
109
158
191
252
331
397
436
462
474
447
374
308
297
334
350
292
184
136
239
469
672
683
508
354
402
601
689
516
244
182
418
674
666
445
326
469
674
645
366
139
210
465
577
438
256
280
500
678
636
440
317
374
515
589
543
443
375
369
423
511
597
623
562
471
472
627
843
931
814
607
506
570
688
732
672
592
563
615
740
884
948
881
738
666
743
856
838
685
602
733
947
1005
888
824
967
1173
1160
898
669
711
925
1017
874
695
715
900
1054
1064
1022
1042
1091
1091
1056
1097
1235
1364
1368
1256
1165
1236
1473
1712
1764
1582
1339
1274
1472
1747
1820
1622
1372
1311
1426
1516
1445
1276
1146
1093
1054
1009
995
1005
998
955
948
1024
1101
1076
988
981
1107
1223
1169
984
884
970
1116
1114
944
786
781
888
962
921
825
780
830
931
1001
998
929
855
829
862
897
899
894
953
1100
1271
1389
1450
1522
1672
1920
2252
2647
3034
3261
3176
2769
2194
1673
1215
645
-199
-1207
-2018
-2354
-2266
-2004
-1757
-1500
-1123
-631
-125
325
732
1090
1312
1344
1277
1288
1440
1618
1694
1678
1681
1734
1772
1729
1673
1711
1830
1909
1876
1811
1814
1886
1923
1893
1863
1917
2026
2103
2107
2067
2006
1936
1917
1998
2126
2167
2071
1945
1952
2092
2193
2154
2071
2080
2159
2174
2098
2067
2174
2314
2326
2216
2150
2232
2363
2415
2397
2414
2487
2524
2474
2413
2427
2499
2540
2508
2447
2431
2481
2569
2654
2710
2723
2706
2706
2734
2755
2744
2745
2793
2844
2826
2752
2741
2870
3068
3169
3116
3007
2968
3006
3023
2935
2785
2677
2665
2702
2714
2667
2601
2577
2602
2625
2601
2517
2412
2315
2199
2037
1896
1856
1884
1839
1669
1486
1459
1590
1696
1600
1371
1213
1215
1258
1208
1067
938
856
752
590
483
523
649
674
507
271
160
219
316
319
257
223
256
313
332
311
290
272
214
88
-70
-196
-194
-58
99
143
61
-23
20
173
299
290
176
41
-68
-138
-121
20
215
302
214
74
79
264
444
430
252
86
101
266
418
426
305
184
183
292
386
373
294
260
297
325
285
241
280
388
460
456
449
515
608
611
519
442
467
549
581
528
461
461
522
583
610
603
584
552
534
567
651
726
712
609
529
588
736
809
702
512
448
584
779
837
748
679
746
894
983
963
891
824
761
683
606
580
616
677
721
731
736
764
830
914
954
891
743
607
551
561
560
530
536
633
761
814
790
793
914
1079
1127
964
713
607
721
904
952
835
718
759
940
1105
1134
1062
986
943
901
831
776
775
798
778
698
635
679
819
928
903
783
724
825
991
1038
909
758
746
874
981
949
841
761
761
792
789
771
786
832
881
926
967
996
993
969
957
949
878
722
583
617
846
1102
1170
1021
854
871
1072
1274
1301
1167
1054
1084
1218
1335
1364
1358
1409
1501
1539
1454
1304
1218
1265
1368
1417
1378
1305
1301
1372
1454
1448
1342
1213
1142
1111
1051
939
849
872
988
1044
924
714
625
751
952
1007
876
757
847
1094
1250
1149
910
789
888
1049
1025
790
558
568
800
1005
981
781
660
742
904
934
790
643
679
873
1053
1131
1153
1198
1294
1397
1457
1490
1550
1716
2061
2546
2992
3151
2917
2417
1892
1426
890
120
-837
-1707
-2226
-2359
-2257
-2065
-1784
-1366
-841
-359
16
345
719
1091
1336
1367
1278
1252
1374
1560
1674
1650
1531
1403
1353
1424
1564
1660
1644
1556
1526
1614
1733
1743
1624
1510
1559
1784
2040
2154
2079
1919
1824
1859
1942
1959
1877
1750
1688
1729
1849
1962
2006
1969
1925
1968
2120
2261
2253
2116
2039
2153
2334
2356
2167
1971
1993
2201
2358
2316
2182
2164
2313
2477
2504
2390
2275
2281
2391
2495
2492
2398
2315
2341
2471
2595
2616
2555
2509
2542
2633
2736
2811
2829
2796
2743
2734
2794
2856
2849
2783
2728
2719
2713
2664
2623
2670
2769
2771
2618
2460
2460
2592
2639
2484
2280
2254
2408
2511
2395
2162
2033
2070
2122
2052
1908
1816
1794
1727
1577
1427
1346
1314
1266
1191
1131
1086
1027
961
954
1006
1017
896
709
630
726
834
765
553
390
386
467
497
449
398
402
437
467
493
504
457
343
230
215
315
421
408
283
204
293
509
671
635
456
329
374
498
520
401
277
311
475
600
568
445
379
449
602
713
707
625
568
609
730
838
829
687
534
497
583
697
745
736
744
788
822
814
789
795
839
869
836
766
719
736
794
846
861
859
850
847
839
823
823
857
912
964
976
926
838
769
767
819
869
861
817
793
829
901
960
952
867
749
680
712
806
852
812
773
828
943
973
843
676
643
746
833
776
652
636
771
924
962
902
869
912
952
918
831
774
780
820
849
882
920
926
878
808
780
824
910
983
999
975
947
927
922
923
904
859
797
744
722
748
828
923
956
886
761
687
725
826
881
837
752
715
748
816
881
940
965
914
796
709
758
903
995
941
823
819
966
1112
1102
940
796
792
863
868
774
680
682
758
813
787
713
668
715
842
963
1017
1009
1006
1061
1137
1132
1029
924
936
1048
1133
1116
1071
1123
1269
1395
1436
1422
1415
1409
1333
1198
1080
1042
1066
1080
1079
1120
1216
1295
1291
1223
1173
1180
1187
1119
984
853
792
798
798
744
636
495
374
327
410
573
674
621
503
530
770
1018
1015
766
550
609
816
854
630
387
403
615
708
542
308
281
449
541
395
182
201
493
780
803
629
562
779
1124
1297
1208
1066
1137
1480
1939
2312
2536
2636
2598
2365
1908
1280
585
-137
-929
-1777
-2531
-2950
-2909
-2557
-2186
-1947
-1689
-1206
-522
99
420
496
568
758
968
1061
1054
1074
1162
1230
1196
1080
996
995
1046
1095
1133
1188
1267
1334
1339
1284
1236
1238
1255
1205
1099
1071
1247
1536
1674
1531
1308
1290
1513
1698
1576
1252
1061
1171
1405
1475
1337
1199
1249
1423
1526
1472
1372
1358
1442
1536
1569
1568
1579
1597
1585
1558
1579
1661
1719
1660
1535
1507
1656
1839
1824
1604
1456
1613
1981
2187
2005
1641
1493
1703
2014
2079
1869
1648
1656
1851
2039
2095
2079
2085
2121
2133
2104
2073
2066
2041
1956
1853
1807
1846
1912
1930
1906
1909
1955
1969
1885
1749
1664
1657
1632
1490
1306
1247
1350
1443
1342
1063
851
882
1061
1117
925
637
503
592
721
673
457
273
266
355
345
161
-82
-203
-167
-108
-131
-209
-228
-154
-57
-38
-84
-99
-57
-43
-142
-313
-413
-370
-271
-261
-341
-394
-366
-325
-340
-350
-253
-102
-86
-254
-389
-277
-8
89
-123
-401
-405
-164
-26
-191
-416
-368
-61
152
70
-107
-40
262
458
314
-3
-141
8
219
248
118
46
170
393
511
466
367
339
390
423
365
255
199
242
321
349
306
263
278
359
434
438
368
297
308
421
566
625
548
416
365
433
503
457
329
255
325
470
570
575
542
556
618
669
646
544
437
434
551
665
623
440
297
324
452
498
418
370
450
542
462
232
100
237
505
608
440
207
174
375
585
591
426
264
248
341
419
399
323
300
368
452
461
408
392
482
605
643
584
519
533
573
553
472
406
390
354
245
127
140
313
511
596
589
603
678
718
644
520
462
476
461
372
314
404
592
681
570
408
405
570
705
655
503
465
606
769
772
630
517
516
535
468
352
317
404
486
454
381
435
650
859
878
699
536
562
735
849
773
638
650
861
1071
1067
902
833
1019
1296
1340
1066
760
753
1036
1263
1183
901
723
810
1003
1061
938
791
736
731
674
566
495
511
537
468
320
218
250
362
404
322
199
188
320
449
461
376
335
409
500
475
319
169
129
153
162
140
156
252
347
372
344
333
335
291
200
152
223
370
472
502
555
714
918
1038
1042
1053
1198
1511
1874
2119
2176
2078
1903
1668
1301
742
29
-707
-1387
-2034
-2637
-3065
-3110
-2758
-2280
-1953
-1768
-1464
-877
-190
264
375
354
441
631
733
667
572
615
769
853
767
630
626
770
923
950
855
729
632
581
588
686
865
1020
1061
1000
930
920
944
973
1008
1035
975
810
661
714
994
1261
1235
921
640
679
975
1200
1144
930
847
1004
1215
1265
1175
1127
1225
1367
1388
1285
1204
1253
1379
1463
1494
1529
1580
1573
1485
1428
1524
1706
1770
1619
1392
1356
1584
1854
1921
1780
1647
1688
1843
1934
1901
1860
1909
2003
2025
1959
1922
1989
2085
2091
1993
1901
1906
1962
1966
1902
1839
1822
1816
1781
1733
1722
1748
1751
1685
1562
1432
1361
1342
1320
1255
1131
1001
941
951
952
881
776
715
699
649
505
334
237
227
224
169
100
69
51
-6
-77
-97
-83
-154
-364
-585
-635
-506
-390
-456
-622
-690
-592
-469
-471
-558
-593
-526
-446
-462
-560
-645
-647
-580
-517
-491
-496
-499
-499
-505
-532
-569
-572
-535
-503
-523
-554
-516
-392
-283
-307
-428
-506
-455
-370
-386
-487
-542
-475
-353
-278
-252
-223
-177
-171
-222
-259
-242
-221
-263
-335
-339
-241
-130
-97
-125
-150
-158
-175
-195
-181
-122
-78
-103
-129
-64
50
74
-53
-178
-145
-6
12
-189
-410
-380
-124
42
-88
-348
-409
-182
80
94
-99
-212
-94
80
81
-98
-237
-192
-47
18
-36
-96
-69
11
85
147
213
216
97
-66
-108
50
253
254
25
-199
-196
-18
71
-63
-244
-224
16
218
159
-66
-159
10
243
237
-18
-243
-203
24
169
100
-29
-13
151
290
282
180
110
87
57
13
12
81
137
109
62
91
177
204
123
43
74
155
130
-21
-109
30
292
417
294
89
58
254
485
536
395
225
176
240
307
301
262
285
392
476
442
336
316
477
721
855
795
671
636
690
730
694
643
635
624
545
443
439
559
666
616
442
312
324
389
355
195
32
-27
10
49
49
61
123
201
221
182
159
191
241
250
212
174
188
234
283
309
284
207
88
-26
-70
-35
-6
-60
-165
-193
-65
133
244
208
149
223
416
550
500
346
294
432
643
771
807
894
1148
1525
1855
1971
1822
1482
1061
605
70
-636
-1506
-2355
-2964
-3230
-3241
-3138
-2949
-2609
-2099
-1531
-1021
-609
-251
73
322
440
431
372
354
402
475
502
462
408
424
540
669
733
732
737
780
792
705
575
531
620
751
819
801
774
790
822
843
830
798
765
743
775
854
901
843
740
757
936
1111
1055
792
606
716
1011
1180
1067
838
787
964
1156
1173
1055
987
1059
1173
1191
1124
1096
1180
1278
1257
1135
1080
1189
1359
1409
1318
1290
1446
1656
1681
1478
1277
1283
1440
1522
1455
1391
1460
1608
1690
1706
1760
1886
1962
1871
1689
1589
1629
1706
1693
1583
1492
1498
1591
1688
1695
1610
1506
1443
1403
1309
1138
988
947
966
923
808
781
906
991
807
425
205
349
607
551
144
-200
-128
195
293
-6
-377
-459
-290
-219
-409
-634
-631
-455
-368
-474
-588
-552
-472
-535
-722
-831
-778
-724
-810
-912
-804
-502
-315
-442
-709
-800
-658
-528
-611
-784
-810
-667
-538
-523
-513
-401
-276
-296
-436
-493
-357
-160
-115
-266
-435
-471
-392
-317
-303
-302
-244
-133
-25
23
26
30
72
121
116
24
-106
-187
-171
-91
-17
27
67
127
200
251
261
256
256
255
217
154
142
248
428
497
380
198
173
360
546
493
240
77
173
389
474
375
292
345
423
361
206
163
307
454
402
197
65
135
297
379
348
291
264
229
172
156
251
420
521
429
217
66
139
421
681
672
366
12
-88
135
407
431
189
-38
-1
231
385
325
214
251
424
513
395
218
198
359
490
422
232
112
138
226
293
354
443
499
439
305
287
457
651
654
467
311
337
435
401
227
99
165
332
414
358
273
283
364
452
508
544
550
503
443
421
449
466
431
406
439
479
466
453
561
782
937
889
728
686
832
999
1029
959
919
943
953
924
943
1039
1112
1071
968
929
963
968
895
835
877
937
864
659
517
576
732
767
596
364
283
424
671
824
765
546
359
375
557
681
582
335
195
295
485
522
377
245
292
441
473
317
136
106
201
265
229
164
155
190
227
282
416
606
725
700
598
574
707
929
1105
1183
1250
1474
1912
2383
2565
2260
1623
1000
548
68
-732
-1805
-2730
-3122
-3015
-2774
-2652
-2543
-2184
-1515
-783
-283
-72
47
272
591
820
824
686
644
828
1102
1207
1041
795
738
918
1138
1182
1056
944
997
1163
1265
1196
1025
916
975
1154
1308
1312
1185
1059
1071
1207
1334
1301
1135
1015
1085
1284
1421
1380
1264
1240
1344
1447
1429
1351
1336
1399
1418
1326
1228
1266
1427
1533
1470
1360
1400
1600
1754
1707
1546
1494
1636
1798
1799
1645
1523
1554
1659
1676
1592
1512
1528
1609
1675
1702
1758
1867
1952
1925
1817
1775
1879
2044
2087
1961
1822
1849
2044
2220
2231
2125
2053
2094
2159
2111
1937
1764
1715
1767
1809
1753
1629
1541
1541
1579
1550
1411
1237
1121
1078
1055
1016
971
951
958
956
905
816
716
620
531
450
376
295
207
153
171
246
315
315
250
170
96
9
-101
-196
-227
-194
-166
-209
-321
-404
-369
-242
-152
-208
-352
-429
-360
-237
-223
-335
-436
-399
-286
-255
-347
-419
-369
-269
-264
-371
-430
-310
-87
31
-40
-176
-216
-132
-55
-80
-165
-207
-179
-137
-154
-211
-215
-110
55
144
92
-33
-78
19
139
137
12
-87
-36
114
226
245
245
297
365
362
310
312
399
473
423
279
175
196
267
290
264
267
337
419
421
342
276
290
359
412
416
387
366
353
340
336
354
368
348
291
236
231
295
376
417
398
361
379
468
568
564
423
246
180
244
330
325
262
245
309
371
347
276
249
276
286
258
256
343
469
540
538
535
570
588
509
355
252
271
339
346
270
216
284
442
570
593
549
517
497
414
268
178
265
465
569
450
241
221
476
779
827
579
278
203
387
603
640
491
333
318
439
560
581
532
517
586
655
632
535
487
544
618
583
456
376
424
534
593
606
663
770
796
685
567
606
765
817
650
454
494
749
916
818
641
695
992
1206
1093
804
700
885
1125
1155
999
885
947
1089
1152
1108
1038
1007
1011
1019
1005
946
839
734
717
811
884
793
555
358
370
563
750
766
610
420
341
424
595
692
622
452
357
414
519
515
405
370
507
651
583
341
195
315
514
474
155
-113
-45
235
351
144
-113
-76
256
574
650
565
577
778
1042
1224
1327
1462
1696
1998
2284
2458
2415
2075
1492
839
255
-281
-915
-1685
-2407
-2805
-2779
-2488
-2179
-1941
-1666
-1203
-604
-81
220
362
531
764
913
852
684
667
899
1142
1113
834
625
735
1039
1231
1186
1091
1153
1331
1396
1245
1032
993
1140
1266
1231
1145
1194
1399
1564
1507
1314
1232
1371
1576
1597
1396
1168
1102
1185
1280
1325
1384
1480
1517
1436
1334
1373
1580
1750
1689
1430
1227
1279
1533
1756
1814
1733
1636
1600
1640
1746
1875
1940
1879
1735
1652
1745
1932
2039
2000
1903
1900
1980
2030
2003
1971
2004
2055
2037
1966
1943
2011
2105
2146
2122
2108
2159
2255
2335
2350
2295
2222
2199
2254
2318
2277
2137
2034
2094
2249
2294
2140
1914
1797
1819
1850
1762
1582
1412
1322
1303
1318
1328
1300
1222
1127
1063
1037
1011
964
906
854
785
674
563
507
456
312
90
-35
76
308
372
149
-125
-127
151
380
275
-73
-300
-217
23
126
20
-133
-181
-129
-78
-51
-15
25
-1
-113
-219
-198
-64
58
77
0
-90
-127
-102
-33
47
80
4
-149
-258
-207
-15
155
149
10
-77
11
203
318
297
234
231
237
166
68
90
251
384
339
210
219
404
550
492
333
292
405
501
489
448
491
570
569
514
534
621
603
415
253
346
639
791
623
345
298
539
795
795
569
375
384
526
647
688
695
709
682
589
481
490
616
696
563
275
119
294
676
922
831
574
465
604
795
780
540
308
311
517
706
694
525
435
572
807
868
664
411
363
524
647
560
382
350
492
609
562
446
462
632
766
693
479
354
458
685
838
801
629
509
543
677
750
686
572
534
573
581
536
525
596
656
594
475
488
685
862
823
640
575
709
847
801
648
614
742
866
839
727
687
737
765
722
687
744
856
905
870
844
888
950
951
910
892
928
958
930
848
778
762
800
875
929
914
824
727
721
847
1011
1073
1023
981
1061
1225
1316
1246
1103
1058
1171
1316
1327
1192
1090
1187
1445
1636
1585
1373
1240
1316
1498
1580
1505
1394
1375
1405
1372
1269
1200
1237
1304
1266
1106
940
865
877
913
906
833
710
592
566
656
770
770
638
515
537
691
835
865
807
742
722
736
758
750
670
537
453
496
612
665
579
441
391
445
511
530
546
619
723
801
854
946
1097
1237
1297
1319
1416
1669
2052
2460
2725
2713
2424
2005
1613
1211
617
-239
-1194
-1997
-2522
-2792
-2824
-2584
-2125
-1641
-1299
-1007
-548
78
598
761
675
673
898
1162
1221
1111
1069
1188
1296
1222
1037
964
1083
1228
1227
1146
1193
1405
1566
1469
1208
1107
1305
1602
1686
1475
1227
1216
1432
1632
1625
1474
1335
1279
1270
1290
1369
1491
1564
1518
1432
1470
1656
1805
1716
1442
1247
1334
1610
1783
1703
1532
1523
1716
1928
1973
1852
1726
1693
1729
1771
1785
1814
1864
1910
1939
1953
1990
2050
2099
2104
2073
2054
2106
2215
2272
2201
2064
2019
2134
2289
2292
2115
1993
2127
2437
2605
2463
2185
2082
2230
2393
2342
2151
2053
2144
2274
2251
2105
2003
2011
2021
1899
1694
1561
1572
1617
1552
1386
1288
1362
1490
1463
1223
965
924
1096
1228
1118
851
661
673
766
754
592
399
283
249
239
222
219
240
279
306
289
200
63
-37
-48
-11
-30
-128
-235
-279
-257
-199
-95
45
134
64
-118
-214
-119
49
76
-87
-247
-200
-28
35
-101
-256
-222
-27
111
36
-114
-103
122
354
381
227
89
75
112
66
-45
-66
59
177
136
-20
-60
138
419
517
370
183
188
369
510
452
286
214
304
441
475
403
347
399
501
539
501
468
490
530
538
521
541
602
632
560
450
432
541
657
650
496
306
218
277
425
559
594
519
400
357
458
626
695
578
368
265
359
553
680
661
580
533
544
560
531
474
414
368
335
336
408
531
618
604
544
566
702
820
777
585
419
430
578
698
669
538
429
410
446
485
509
528
542
539
519
491
507
582
667
677
575
442
399
492
645
722
668
556
480
476
512
555
580
565
516
495
574
742
866
833
682
604
679
792
764
590
450
491
628
671
576
501
600
791
860
761
665
728
882
927
797
627
574
620
622
564
574
721
883
905
798
746
871
1059
1072
839
554
490
688
923
957
786
645
716
917
1030
936
747
665
720
780
748
692
740
894
1015
1021
977
979
1038
1079
1073
1057
1073
1131
1227
1365
1503
1551
1467
1360
1372
1495
1544
1404
1203
1186
1382
1574
1554
1348
1166
1126
1171
1192
1143
1057
941
814
750
812
941
998
903
742
689
775
857
804
659
598
717
924
1011
922
792
776
864
914
813
647
575
628
689
666
605
588
602
539
385
280
343
520
632
620
618
770
1031
1215
1214
1152
1223
1430
1609
1678
1766
2055
2493
2787
2689
2265
1787
1406
996
351
-538
-1417
-2047
-2359
-2433
-2361
-2176
-1907
-1588
-1212
-733
-169
342
644
725
743
863
1061
1183
1136
1008
961
1022
1076
1033
964
1004
1165
1323
1346
1278
1261
1344
1395
1294
1107
1018
1128
1324
1440
1436
1415
1475
1586
1620
1522
1344
1203
1188
1290
1387
1358
1205
1105
1231
1551
1808
1764
1466
1228
1296
1596
1806
1699
1382
1158
1228
1515
1772
1797
1620
1433
1393
1515
1677
1753
1726
1663
1622
1619
1634
1676
1742
1800
1844
1879
1927
1989
2028
2041
2056
2087
2087
2011
1894
1849
1945
2116
2220
2198
2126
2123
2192
2233
2163
2041
1998
2063
2108
2044
1930
1917
2040
2153
2075
1834
1634
1626
1747
1807
1708
1522
1404
1415
1501
1542
1451
1246
1047
976
1023
1044
932
739
636
687
755
686
498
359
386
501
517
358
132
-10
-13
63
110
76
-36
-155
-234
-254
-231
-202
-214
-298
-429
-523
-472
-293
-136
-135
-255
-321
-222
-71
-43
-156
-252
-232
-182
-215
-288
-236
-55
51
-70
-293
-353
-205
-62
-115
-288
-342
-200
9
117
138
157
170
116
18
1
100
184
95
-107
-193
-49
162
189
9
-144
-61
193
369
339
226
220
352
453
412
295
230
251
279
270
280
348
421
430
411
446
549
599
504
368
361
506
615
530
303
183
280
462
520
407
261
217
277
361
429
488
524
498
442
438
528
624
591
433
300
320
462
565
533
438
401
448
511
507
431
346
290
268
274
317
369
410
411
392
417
492
582
640
642
584
482
384
359
444
559
585
473
331
290
366
449
448
396
391
441
474
443
407
440
497
479
372
300
371
523
590
514
435
496
648
694
538
343
329
494
610
517
330
284
450
640
647
485
366
428
605
682
561
362
328
569
916
1051
838
501
396
601
834
803
541
348
400
551
581
500
492
625
773
791
721
716
820
939
990
977
932
866
798
802
909
1021
1020
884
767
796
947
1093
1157
1160
1141
1095
1025
972
995
1052
1041
931
789
720
744
793
783
681
524
389
379
526
718
780
650
461
421
578
740
712
513
328
303
391
471
481
453
435
433
448
494
544
531
423
288
230
261
305
284
221
180
202
289
439
632
784
810
755
796
1043
1367
1527
1491
1510
1809
2270
2504
2272
1728
1198
813
395
-257
-1128
-1994
-2614
-2883
-2863
-2663
-2394
-2096
-1741
-1304
-829
-432
-180
-26
124
291
404
421
394
422
545
674
708
639
543
511
549
604
644
673
688
680
638
596
599
657
712
723
709
708
717
723
725
774
879
968
959
865
801
834
911
916
818
700
671
747
844
867
800
716
706
810
958
1037
1004
910
859
905
1005
1120
1218
1265
1239
1159
1111
1170
1289
1332
1238
1113
1112
1253
1393
1405
1341
1337
1449
1572
1583
1473
1351
1318
1381
1477
1557
1577
1510
1408
1398
1579
1880
2053
1942
1666
1509
1616
1817
1844
1664
1479
1466
1561
1575
1470
1391
1439
1519
1484
1346
1266
1301
1334
1241
1079
1016
1047
1005
787
529
442
538
593
458
232
102
139
217
204
125
67
42
-16
-124
-202
-185
-120
-136
-276
-454
-558
-554
-488
-458
-529
-698
-862
-891
-738
-540
-478
-588
-735
-773
-725
-718
-788
-828
-748
-638
-645
-754
-787
-632
-404
-327
-473
-685
-766
-672
-514
-430
-460
-551
-603
-552
-422
-314
-325
-435
-523
-496
-395
-329
-355
-415
-424
-359
-263
-205
-213
-266
-303
-272
-182
-111
-121
-164
-124
43
201
188
16
-125
-73
101
190
103
-37
-64
25
131
191
219
215
144
7
-62
47
241
276
46
-243
-263
60
425
500
270
53
124
409
587
470
188
27
100
246
253
117
21
89
225
263
192
172
304
468
463
267
93
126
295
354
198
-5
-19
184
403
419
248
106
151
329
437
373
230
165
237
360
416
383
333
317
339
373
376
326
241
178
212
328
436
447
372
335
410
523
540
407
230
157
230
342
362
271
187
208
321
410
413
386
409
471
475
383
310
381
549
613
476
286
267
440
580
496
264
130
229
449
574
553
471
456
540
650
690
638
571
583
682
769
732
596
536
668
907
1016
862
596
512
738
1100
1277
1148
903
821
972
1187
1252
1162
1065
1036
1015
941
913
1056
1310
1406
1195
855
735
934
1154
1066
698
417
487
778
949
839
616
517
598
705
703
613
537
527
541
546
565
620
686
711
677
644
647
648
598
499
417
391
372
302
192
135
199
336
439
450
407
405
496
632
734
758
751
783
915
1101
1274
1428
1656
2025
2445
2718
2669
2311
1792
1248
719
157
-499
-1257
-2021
-2608
-2838
-2679
-2294
-1883
-1521
-1139
-684
-206
216
576
887
1087
1077
898
769
863
1116
1288
1248
1069
946
970
1110
1295
1473
1576
1521
1361
1254
1328
1526
1653
1581
1387
1250
1287
1442
1586
1628
1586
1540
1543
1600
1668
1698
1681
1624
1561
1529
1551
1608
1657
1679
1700
1777
1885
1910
1788
1622
1577
1700
1833
1801
1641
1551
1657
1846
1903
1797
1705
1781
1974
2093
2056
1950
1921
2020
2154
2222
2196
2134
2106
2157
2272
2382
2416
2370
2316
2329
2391
2419
2369
2312
2350
2466
2531
2472
2368
2361
2481
2583
2518
2330
2193
2214
2300
2298
2188
2092
2111
2209
2260
2186
2021
1878
1833
1879
1937
1924
1810
1665
1583
1580
1564
1447
1273
1172
1196
1257
1199
1013
839
798
829
776
584
377
299
344
380
338
288
314
388
363
179
-18
-46
100
217
121
-117
-224
-55
247
376
206
-62
-138
24
180
96
-163
-287
-92
227
349
173
-75
-119
56
236
232
78
-61
-63
66
218
275
204
70
5
61
153
180
174
223
329
404
389
384
480
598
578
389
209
210
343
422
385
350
414
539
608
609
623
681
717
686
640
644
680
670
608
591
681
810
833
715
567
528
631
763
816
798
786
823
859
823
746
717
757
795
726
578
496
564
722
845
869
832
791
770
772
806
831
771
623
506
539
708
829
786
665
664
817
946
887
701
604
694
839
860
734
592
526
518
523
567
652
709
658
541
515
653
824
816
593
354
314
464
604
595
473
413
477
602
668
672
682
724
732
650
519
438
453
500
503
480
493
567
623
593
512
476
539
634
664
617
571
596
666
698
634
504
413
424
499
514
388
223
194
362
566
618
523
463
574
758
815
694
552
553
670
752
720
644
612
630
660
694
748
785
752
678
665
779
956
1073
1059
1001
1020
1116
1192
1179
1124
1127
1196
1216
1088
886
798
921
1149
1259
1147
941
865
986
1166
1236
1142
965
812
704
621
555
530
551
557
499
395
328
346
421
473
497
544
629
688
661
588
585
680
748
640
417
291
362
467
393
172
64
215
452
495
323
173
231
412
496
445
424
527
652
676
680
846
1170
1421
1432
1373
1598
2196
2812
2961
2514
1799
1235
906
524
-200
-1209
-2147
-2690
-2816
-2721
-2571
-2360
-1999
-1493
-957
-477
-43
352
629
709
664
700
895
1094
1082
888
785
944
1211
1281
1112
996
1189
1562
1732
1530
1204
1104
1264
1411
1341
1143
1073
1220
1430
1535
1532
1538
1588
1616
1583
1533
1532
1550
1514
1406
1317
1328
1420
1505
1517
1506
1533
1600
1643
1625
1583
1602
1713
1836
1861
1763
1635
1599
1670
1763
1798
1765
1732
1740
1774
1799
1810
1829
1847
1859
1875
1924
2012
2085
2093
2039
1993
2012
2095
2171
2169
2099
2041
2110
2305
2486
2503
2370
2274
2333
2465
2482
2301
2071
1986
2067
2165
2159
2096
2095
2176
2230
2172
2032
1908
1873
1894
1882
1801
1677
1556
1481
1462
1475
1462
1361
1185
1029
998
1086
1154
1067
853
680
697
834
897
773
538
375
358
402
355
175
-41
-136
-51
112
173
53
-126
-143
42
235
209
-27
-249
-272
-172
-144
-233
-293
-208
-72
-40
-122
-158
-43
101
89
-68
-176
-79
104
142
-6
-137
-57
160
289
212
59
30
162
297
291
183
112
156
269
353
354
271
152
72
81
160
211
170
72
39
118
251
373
458
520
536
476
402
415
535
632
565
375
265
366
570
667
583
451
437
545
617
556
448
462
650
871
933
800
616
548
614
682
619
459
356
399
526
605
600
599
660
719
696
600
516
502
513
512
532
606
687
703
655
639
693
731
647
500
426
469
532
511
443
424
481
544
570
594
620
624
576
527
557
633
671
624
547
529
569
602
602
616
652
676
666
642
652
694
721
710
657
584
522
540
648
763
771
668
582
618
721
725
586
452
485
655
740
638
470
433
577
734
743
637
554
572
631
640
601
605
676
725
682
588
569
678
823
839
680
466
385
507
715
823
764
641
593
658
733
729
662
614
640
706
730
713
731
822
921
940
859
761
737
797
865
872
829
815
900
1077
1251
1329
1297
1220
1183
1192
1200
1165
1107
1056
1029
1006
975
972
1006
1043
1001
850
688
645
758
894
883
716
547
517
580
589
500
406
402
454
462
415
403
498
617
650
577
486
445
450
462
444
401
334
278
270
305
335
312
261
239
225
165
80
68
193
358
426
416
478
695
922
983
901
872
1016
1288
1599
1920
2252
2483
2448
2110
1619
1124
612
-78
-1012
-2012
-2775
-3096
-3019
-2761
-2515
-2273
-1882
-1253
-543
4
290
440
634
850
942
883
831
915
1043
1035
868
724
770
937
1024
968
924
1018
1197
1288
1193
1025
972
1085
1239
1283
1208
1153
1237
1390
1428
1295
1132
1126
1287
1442
1426
1275
1190
1269
1418
1477
1402
1292
1265
1339
1420
1437
1409
1412
1473
1539
1531
1444
1365
1364
1410
1432
1390
1335
1343
1395
1429
1463
1545
1662
1723
1664
1569
1599
1776
1919
1853
1628
1466
1515
1714
1858
1847
1773
1798
1956
2128
2183
2114
2032
2040
2123
2158
2076
1938
1881
1956
2093
2180
2184
2174
2190
2209
2191
2120
2021
1894
1729
1574
1482
1440
1386
1302
1266
1342
1438
1414
1261
1132
1133
1160
1020
721
485
484
622
650
497
340
355
475
491
326
115
29
56
67
-18
-130
-156
-103
-62
-94
-178
-248
-264
-235
-208
-225
-282
-320
-315
-306
-343
-431
-486
-472
-446
-466
-509
-481
-355
-235
-210
-248
-225
-115
-36
-106
-270
-346
-262
-131
-112
-216
-298
-237
-87
4
-34
-116
-120
-43
30
54
58
86
113
75
-7
-59
-6
99
132
45
-64
-45
131
332
399
298
142
76
169
340
443
406
300
271
391
564
616
493
324
290
409
511
431
223
104
210
437
553
476
351
370
551
709
669
489
361
384
477
497
419
348
378
469
519
492
448
466
526
552
508
442
412
423
440
447
483
571
663
674
573
418
321
352
437
450
347
227
238
392
561
614
558
500
489
474
427
423
527
655
656
510
369
395
541
636
573
449
392
398
405
423
521
683
784
738
623
589
656
707
654
562
527
526
479
397
381
482
610
634
550
462
482
607
737
769
681
544
475
539
654
675
568
487
564
726
767
611
420
412
586
740
744
658
613
646
698
741
787
820
794
710
630
634
684
693
634
585
645
782
859
781
631
616
832
1126
1194
924
556
446
686
1006
1079
886
698
753
1024
1289
1393
1339
1248
1226
1284
1348
1296
1122
961
985
1182
1359
1337
1150
992
990
1101
1191
1178
1037
812
618
583
740
924
923
722
524
517
672
770
692
537
486
585
691
664
532
461
536
656
649
486
334
360
540
636
498
261
191
368
574
566
339
135
135
293
445
495
482
485
555
708
938
1188
1359
1406
1453
1666
2102
2569
2764
2517
1971
1435
1064
694
36
-961
-1978
-2607
-2740
-2625
-2535
-2464
-2242
-1789
-1230
-737
-320
108
509
715
662
539
617
935
1222
1206
937
731
804
1058
1216
1139
994
994
1169
1353
1385
1278
1164
1137
1184
1247
1312
1366
1381
1339
1292
1330
1436
1497
1407
1239
1206
1380
1605
1632
1431
1233
1263
1485
1616
1481
1229
1169
1393
1671
1734
1587
1489
1611
1835
1909
1748
1528
1454
1537
1625
1588
1440
1307
1321
1502
1735
1866
1839
1750
1753
1908
2093
2154
2087
2002
2007
2066
2091
2077
2095
2187
2297
2351
2343
2305
2261
2190
2120
2097
2118
2114
2035
1929
1909
2004
2135
2207
2195
2139
2072
1987
1900
1868
1905
1935
1869
1707
1573
1592
1703
1729
1589
1386
1305
1345
1348
1206
1015
962
1063
1131
1037
840
708
681
644
517
364
288
280
203
39
-77
-72
-40
-111
-251
-283
-144
-17
-81
-247
-267
-75
98
10
-245
-376
-290
-185
-275
-458
-493
-351
-249
-332
-447
-366
-159
-127
-374
-630
-585
-299
-116
-213
-419
-438
-252
-87
-97
-199
-256
-256
-264
-283
-236
-106
-17
-63
-176
-192
-34
171
223
78
-136
-221
-123
58
161
137
82
89
155
206
208
190
178
159
109
78
130
253
331
291
199
177
258
378
446
440
382
305
272
349
510
607
489
200
0
