-2567
-2567
-2668
-2769
-2239
-1710
-1959
-2208
-1992
-1775
-2021
-2267
-2112
-1956
-2241
-2526
-2543
-2559
-2385
-2210
-2226
-2242
-2217
-2193
-1969
-1745
-2106
-2466
-2508
-2551
-2263
-1974
-1990
-2007
-1767
-1528
-2242
-2955
-2761
-2566
-2381
-2196
-2148
-2101
-1971
-1842
-1971
-2100
-2069
-2037
-2327
-2617
-2341
-2064
-2003
-1942
-2092
-2242
-1961
-1680
-2037
-2394
-2317
-2240
-2414
-2587
-2397
-2206
-2149
-2092
-2082
-2072
-2109
-2146
-2152
-2157
-2216
-2275
-2230
-2184
-1989
-1793
-2090
-2386
-2539
-2692
-2370
-2048
-2164
-2281
-2217
-2152
-1941
-1729
-2049
-2369
-2592
-2815
-2246
-1678
-2087
-2495
-2457
-2418
-1972
-1525
-1730
-1936
-1809
-1681
-1941
-2200
-2139
-2078
-1911
-1743
-1782
-1822
-1717
-1611
-1563
-1514
-1563
-1612
-1725
-1838
-1546
-1255
-1241
-1228
-1275
-1321
-1442
-1562
-1916
-2270
-2385
-2501
-2060
-1619
-2105
-2590
-2164
-1738
-1845
-1953
-2044
-2135
-2049
-1963
-2074
-2185
-1835
-1486
-1911
-2335
-2183
-2030
-1966
-1902
-1973
-2044
-1905
-1766
-1629
-1492
-1728
-1964
-2102
-2241
-2218
-2195
-2239
-2284
-1960
-1637
-2004
-2372
-2027
-1682
-1640
-1597
-1666
-1736
-1733
-1731
-1136
-541
-478
-415
-66
282
49
-184
-153
-121
-888
-1655
-2109
-2563
-2441
-2319
-2442
-2566
-3243
-3920
-3879
-3837
-3616
-3394
-2914
-2435
-2430
-2426
-2272
-2117
-2234
-2351
-2360
-2370
-2098
-1827
-1696
-1565
-1530
-1494
-1219
-944
-1445
-1947
-1922
-1897
-1776
-1656
-1860
-2063
-1304
-546
-1197
-1848
-1690
-1532
-1445
-1358
-1352
-1345
-1331
-1318
-1259
-1200
-1416
-1632
-1554
-1476
-1733
-1991
-1952
-1913
-1462
-1010
-988
-967
-1184
-1400
-1331
-1262
-1406
-1550
-1812
-2073
-1629
-1184
-1076
-968
-1099
-1229
-1277
-1324
-1455
-1585
-1588
-1592
-1443
-1294
-1749
-2204
-1417
-630
-868
-1106
-1497
-1887
-2010
-2132
-1727
-1322
-1166
-1010
-1137
-1265
-1157
-1049
-1191
-1334
-1358
-1383
-1373
-1363
-1315
-1267
-1196
-1124
-1341
-1557
-1476
-1396
-1430
-1463
-1059
-656
-844
-1032
-1241
-1451
-856
-262
-426
-589
-600
-612
-744
-875
-906
-938
-703
-469
-316
-163
-668
-1174
-930
-686
-609
-532
-463
-393
-417
-442
-469
-497
-711
-924
-1165
-1406
-1045
-684
-807
-929
-1253
-1577
-1258
-939
-1149
-1359
-1687
-2015
-1855
-1695
-1451
-1208
-1272
-1336
-1833
-2330
-2221
-2112
-1823
-1535
-1618
-1701
-1794
-1887
-1937
-1986
-2038
-2091
-2155
-2220
-2219
-2217
-2121
-2025
-2063
-2101
-2123
-2144
-2019
-1893
-2216
-2538
-2320
-2101
-2232
-2362
-2524
-2686
-2474
-2262
-2342
-2421
-2407
-2393
-1986
-1580
-2080
-2580
-2778
-2976
-2566
-2156
-1782
-1409
-1807
-2204
-1675
-1146
-1468
-1789
-1918
-2048
-2096
-2145
-2064
-1984
-2028
-2073
-2048
-2023
-2125
-2228
-1746
-1264
-1756
-2248
-2257
-2266
-2210
-2154
-2066
-1978
-2224
-2469
-2418
-2367
-2447
-2527
-2681
-2835
-2918
-3002
-2631
-2260
-3097
-3934
-3069
-2205
-1696
-1186
-1367
-1548
-1698
-1847
-1922
-1996
-1724
-1452
-1785
-2118
-2183
-2248
-2240
-2233
-2132
-2032
-2168
-2303
-1704
-1105
-1448
-1790
-1807
-1825
-1882
-1940
-1587
-1234
-1559
-1884
-1716
-1548
-1612
-1677
-1384
-1091
-1404
-1718
-1928
-2137
-1580
-1023
-1893
-2762
-2002
-1243
-1453
-1663
-1167
-671
-774
-878
-1015
-1152
-1291
-1431
-1020
-608
-763
-918
-1139
-1361
-842
-323
-923
-1523
-897
-271
-126
19
-484
-987
-936
-885
-741
-597
-681
-766
-1455
-2143
-2252
-2360
-2145
-1931
-1922
-1913
-1860
-1807
-2080
-2352
-1789
-1225
-1285
-1345
-1297
-1248
-1357
-1466
-1380
-1295
-924
-553
-1073
-1592
-1684
-1776
-1335
-893
-883
-873
-1226
-1579
-1217
-854
-1291
-1727
-1917
-2107
-2055
-2003
-1969
-1934
-1729
-1524
-1159
-794
-834
-874
-1385
-1897
-1546
-1196
-1159
-1122
-809
-496
-425
-354
23
400
159
-81
-715
-1349
-1476
-1603
-1789
-1974
-2294
-2614
-2439
-2265
-2358
-2451
-3399
-4347
-3698
-3049
-3130
-3210
-2792
-2374
-2486
-2598
-2606
-2613
-2506
-2399
-2215
-2030
-2003
-1976
-2058
-2139
-2167
-2196
-2290
-2383
-2568
-2752
-2521
-2290
-2489
-2687
-2440
-2192
-2406
-2619
-2715
-2811
-2682
-2552
-3071
-3590
-3495
-3400
-3535
-3669
-3293
-2917
-2608
-2298
-2374
-2451
-2892
-3334
-2884
-2433
-2334
-2235
-2887
-3539
-3175
-2811
-3091
-3371
-3223
-3075
-3203
-3331
-3399
-3466
-3193
-2919
-2933
-2948
-2731
-2515
-2810
-3105
-3243
-3382
-3206
-3031
-3023
-3015
-2920
-2826
-3209
-3593
-3366
-3139
-3068
-2996
-2854
-2712
-3025
-3338
-3523
-3708
-3753
-3798
-3324
-2851
-3610
-4369
-4020
-3672
-3119
-2566
-3464
-4363
-4508
-4652
-4293
-3933
-3686
-3438
-3110
-2781
-3151
-3521
-3904
-4287
-4350
-4414
-4492
-4571
-4186
-3801
-3653
-3506
-3440
-3374
-3604
-3835
-4277
-4720
-4487
-4255
-4307
-4359
-3374
-2388
-2896
-3404
-2630
-1856
-2859
-3862
-3578
-3294
-3246
-3199
-3419
-3640
-3730
-3820
-4177
-4534
-4630
-4726
-4321
-3916
-4462
-5009
-5054
-5100
-5317
-5535
-6365
-7195
-6464
-5732
-5824
-5916
-6039
-6161
-5450
-4739
-5185
-5631
-5436
-5241
-5897
-6554
-6336
-6117
-5843
-5568
-5908
-6248
-6949
-7649
-7723
-7796
-7672
-7548
-6896
-6245
-6251
-6258
-6416
-6573
-6418
-6262
-6901
-7540
-6978
-6415
-6894
-7372
-6797
-6222
-6071
-5919
-6108
-6296
-7289
-8282
-7885
-7489
-5651
-3813
-3891
-3970
-4481
-4992
-5332
-5672
-6352
-7032
-6439
-5847
-5967
-6086
-5855
-5624
-5216
-4809
-5286
-5762
-5726
-5690
-5909
-6127
-5978
-5830
-5798
-5766
-5603
-5440
-5451
-5462
-5602
-5742
-5803
-5864
-5678
-5492
-5309
-5125
-5277
-5429
-5324
-5219
-4765
-4311
-4926
-5541
-5618
-5695
-4970
-4245
-4271
-4296
-4075
-3854
-4209
-4564
-4623
-4682
-4904
-5127
-5561
-5995
-6190
-6386
-6571
-6755
-6546
-6337
-7543
-8750
-7852
-6954
-6311
-5669
-5911
-6153
-5869
-5584
-5805
-6027
-6027
-6027
-6152
-6277
-5885
-5492
-5712
-5933
-5891
-5848
-5800
-5753
-5465
-5178
-5129
-5080
-5240
-5400
-5157
-4915
-5152
-5389
-4948
-4506
-4901
-5296
-5174
-5053
-4493
-3932
-4417
-4902
-4741
-4580
-4600
-4620
-4906
-5192
-4511
-3830
-4015
-4200
-4184
-4168
-4066
-3964
-3940
-3917
-4077
-4236
-4238
-4240
-3707
-3174
-2981
-2788
-3221
-3653
-3955
-4257
-3935
-3613
-3225
-2836
-2562
-2288
-1879
-1470
-1145
-820
-1542
-2265
-2365
-2465
-2556
-2648
-2947
-3246
-3530
-3814
-3891
-3969
-4295
-4621
-4615
-4609
-4421
-4234
-4660
-5085
-4654
-4223
-3974
-3724
-3693
-3662
-3635
-3608
-3288
-2968
-3488
-4008
-3420
-2833
-2823
-2813
-3035
-3257
-3524
-3790
-3173
-2556
-2714
-2872
-2695
-2517
-2711
-2906
-2949
-2992
-3062
-3133
-3237
-3342
-2916
-2490
-2459
-2429
-2778
-3127
-3050
-2972
-3032
-3092
-3258
-3424
-3428
-3432
-2625
-1819
-2070
-2322
-2696
-3070
-3075
-3079
-2736
-2393
-2698
-3003
-3080
-3157
-2712
-2266
-2761
-3256
-3261
-3265
-2836
-2408
-2623
-2837
-2701
-2566
-2946
-3327
-3597
-3867
-3861
-3855
-3648
-3441
-3237
-3033
-3501
-3969
-4132
-4295
-3760
-3226
-3580
-3933
-3731
-3530
-3054
-2578
-2611
-2643
-2692
-2741
-2866
-2992
-3383
-3774
-3222
-2669
-2435
-2202
-2115
-2028
-2385
-2743
-2985
-3226
-3136
-3046
-2802
-2559
-2510
-2461
-2473
-2485
-2847
-3210
-3022
-2834
-2557
-2279
-2109
-1939
-1930
-1922
-2403
-2884
-2848
-2812
-3201
-3590
-3361
-3132
-2608
-2085
-2132
-2179
-2551
-2922
-2764
-2607
-2876
-3145
-2982
-2820
-2910
-3000
-2911
-2823
-2999
-3174
-3116
-3058
-3287
-3517
-3767
-4018
-3678
-3337
-3504
-3671
-3515
-3359
-3565
-3772
-3753
-3734
-3997
-4260
-3833
-3407
-3423
-3439
-3128
-2817
-2940
-3064
-3466
-3868
-3485
-3102
-2971
-2841
-2764
-2688
-2986
-3284
-3313
-3341
-3361
-3380
-3180
-2981
-3059
-3136
-2889
-2643
-2685
-2727
-2950
-3173
-2982
-2792
-2536
-2280
-2352
-2423
-2191
-1960
-2414
-2867
-2323
-1780
-2507
-3233
-3200
-3167
-2943
-2719
-2229
-1739
-2463
-3186
-3255
-3324
-2732
-2141
-1942
-1744
-1781
-1817
-1666
-1515
-1797
-2078
-2160
-2242
-2349
-2455
-2067
-1679
-1683
-1686
-1563
-1440
-1417
-1394
-1679
-1963
-2254
-2545
-2960
-3375
-2367
-1359
-967
-575
-601
-628
-796
-964
-1359
-1754
-1833
-1913
-1285
-656
-813
-970
-1167
-1365
-1422
-1479
-1464
-1449
-994
-538
-557
-577
-961
-1346
-1301
-1256
-1313
-1370
-1485
-1600
-1279
-958
-700
-441
-924
-1407
-1428
-1449
-1604
-1759
-1429
-1099
-764
-429
-420
-410
-413
-417
-695
-973
-1105
-1238
-1776
-2315
-1464
-612
-990
-1369
-1057
-745
-941
-1138
-1805
-2473
-1654
-834
-750
-666
-719
-772
-847
-922
-1349
-1776
-1780
-1784
-1565
-1346
-1307
-1268
-1243
-1219
-1573
-1926
-1663
-1400
-1472
-1543
-2023
-2502
-2099
-1697
-1105
-513
-789
-1065
-958
-851
-1357
-1863
-890
83
124
165
729
1293
994
696
569
442
124
-194
-27
140
-982
-2103
-1930
-1757
-2242
-2726
-2357
-1989
-2390
-2791
-2416
-2042
-1861
-1681
-1557
-1434
-1160
-887
-1312
-1737
-1698
-1660
-1667
-1674
-1272
-870
-433
4
-317
-637
-765
-892
-1168
-1443
-1037
-631
-736
-841
-934
-1028
-370
289
87
-115
-608
-1102
-808
-514
-680
-846
-447
-47
-470
-894
-986
-1078
-1156
-1235
-951
-666
-296
75
-96
-268
-318
-368
-534
-701
-868
-1035
-798
-560
-518
-476
-1262
-2049
-1740
-1430
-1275
-1120
-1003
-886
-492
-98
-220
-343
-464
-585
-830
-1075
-1445
-1816
-1265
-713
-571
-429
-261
-93
-123
-154
-380
-606
-740
-875
-898
-921
-798
-675
-471
-267
-209
-152
-318
-484
-601
-717
-931
-1144
-1033
-922
-813
-704
-544
-385
-554
-722
-660
-599
-575
-552
-252
47
-111
-269
-255
-242
-380
-518
-787
-1055
-584
-113
-427
-740
-567
-395
-284
-173
-765
-1357
-1098
-840
-1061
-1282
-1299
-1316
-996
-676
-774
-872
-923
-973
-1526
-2078
-1956
-1835
-1843
-1851
-1790
-1730
-1873
-2016
-2208
-2400
-2358
-2316
-2229
-2143
-2323
-2503
-2435
-2367
-2100
-1833
-2099
-2364
-2508
-2652
-2968
-3285
-2558
-1831
-1761
-1690
-1910
-2131
-2318
-2506
-2478
-2450
-2855
-3261
-2943
-2624
-2290
-1955
-1679
-1402
-1761
-2121
-2273
-2425
-2563
-2701
-2259
-1817
-1833
-1850
-2446
-3042
-2416
-1790
-2281
-2772
-2658
-2543
-2241
-1939
-1914
-1888
-2167
-2447
-2323
-2199
-2356
-2514
-2516
-2518
-2070
-1621
-1635
-1650
-2097
-2545
-3025
-3505
-3520
-3535
-2518
-1501
-1405
-1308
-1301
-1293
-1767
-2241
-1796
-1350
-1866
-2382
-2457
-2531
-2009
-1487
-1307
-1127
-1283
-1438
-1616
-1794
-1974
-2154
-1859
-1565
-1539
-1514
-1337
-1160
-1354
-1548
-1441
-1335
-1396
-1456
-1424
-1392
-1550
-1708
-1441
-1174
-1438
-1702
-1757
-1812
-1694
-1577
-1548
-1519
-1279
-1040
-1137
-1234
-1245
-1255
-1347
-1438
-1692
-1945
-1589
-1233
-1222
-1211
-860
-510
-824
-1137
-1173
-1209
-1172
-1135
-1225
-1315
-1116
-917
-829
-742
-1007
-1271
-1689
-2107
-2001
-1895
-1281
-667
-358
-49
-97
-146
-503
-861
-818
-775
-667
-559
-688
-818
-428
-37
-322
-608
-718
-829
-932
-1036
-1346
-1657
-1362
-1066
-845
-623
-802
-981
-953
-925
-1064
-1203
-1439
-1675
-1315
-954
-800
-646
-743
-841
-762
-682
-797
-912
-954
-997
-727
-456
-279
-101
-287
-474
-603
-733
-721
-709
-837
-965
-777
-588
-268
52
221
391
-628
-1647
-1127
-606
-157
293
423
554
1393
2233
2053
1872
1717
1563
548
-466
-805
-1143
-1078
-1013
-1158
-1302
-1927
-2551
-2540
-2529
-2513
-2498
-2179
-1860
-1683
-1507
-827
-148
-835
-1522
-739
43
-489
-1021
-1008
-995
-813
-632
-465
-298
-140
17
-89
-195
-725
-1254
-1330
-1406
-704
-2
234
470
294
119
-174
-466
-584
-702
-828
-954
-565
-177
-93
-9
-28
-46
-302
-557
-507
-457
-968
-1479
-554
371
-41
-453
-227
-1
-356
-711
-751
-791
-794
-797
-638
-478
-519
-561
-411
-260
-381
-503
-1064
-1625
-868
-110
-137
-165
-48
69
-37
-143
-307
-472
-699
-926
-573
-219
-233
-247
-570
-893
-710
-526
-614
-702
-863
-1024
-740
-456
-221
15
-19
-53
-115
-177
-554
-931
-641
-351
-460
-569
-299
-29
-221
-414
-359
-304
-469
-635
-616
-596
-474
-351
-204
-56
-281
-506
-143
220
-62
-345
-372
-400
-534
-669
-757
-845
-446
-47
-167
-286
-315
-343
-325
-307
-1026
-1744
-1301
-859
-668
-477
-716
-955
-1242
-1528
-1489
-1450
-1509
-1567
-1388
-1210
-1612
-2013
-1967
-1922
-1825
-1729
-2107
-2485
-2226
-1968
-1844
-1721
-1789
-1856
-1987
-2117
-2123
-2128
-2334
-2540
-2450
-2360
-2050
-1741
-1370
-1000
-1083
-1165
-2079
-2992
-2567
-2142
-1992
-1843
-1824
-1805
-1479
-1153
-1735
-2316
-2221
-2126
-2084
-2042
-1971
-1901
-1756
-1611
-1696
-1781
-1669
-1556
-1844
-2133
-2050
-1967
-1959
-1950
-1840
-1729
-1809
-1890
-1936
-1982
-2237
-2493
-2271
-2048
-1701
-1354
-1284
-1214
-1510
-1806
-2149
-2492
-2487
-2481
-2252
-2022
-1701
-1379
-1365
-1350
-1121
-892
-1834
-2776
-2620
-2463
-1916
-1368
-1693
-2018
-1690
-1361
-1532
-1704
-1746
-1788
-2023
-2258
-2258
-2257
-2303
-2349
-1960
-1571
-1986
-2402
-2294
-2185
-2442
-2699
-2583
-2466
-2184
-1902
-1894
-1886
-1968
-2051
-2081
-2111
-2768
-3425
-2693
-1962
-2202
-2442
-2091
-1740
-1661
-1582
-1527
-1473
-1796
-2118
-1880
-1643
-1337
-1032
-780
-528
-848
-1168
-1425
-1681
-1688
-1694
-1675
-1656
-1397
-1139
-1257
-1375
-1719
-2062
-1944
-1827
-1704
-1582
-1422
-1263
-1348
-1433
-1422
-1412
-1539
-1665
-1351
-1037
-1455
-1873
-1773
-1674
-1389
-1105
-1060
-1015
-1450
-1885
-2094
-2303
-1986
-1670
-1661
-1653
-1437
-1222
-868
-514
-735
-956
-1034
-1112
-1442
-1771
-1654
-1536
-1323
-1110
-1278
-1446
-1526
-1607
-1807
-2008
-2020
-2032
-2002
-1971
-2437
-2903
-2115
-1327
-1628
-1929
-2188
-2448
-2473
-2498
-2407
-2315
-2229
-2142
-1978
-1814
-1991
-2169
-2134
-2098
-2367
-2637
-2594
-2551
-2341
-2131
-1899
-1667
-2179
-2692
-2430
-2167
-2368
-2570
-2424
-2278
-2058
-1838
-1660
-1481
-1555
-1630
-1593
-1555
-1551
-1547
-1095
-643
-527
-410
-130
151
59
-34
-895
-1757
-2054
-2352
-2709
-3067
-3182
-3298
-3541
-3783
-3824
-3864
-4311
-4758
-4176
-3594
-3576
-3559
-2813
-2068
-2167
-2266
-2172
-2079
-2138
-2196
-2184
-2173
-2324
-2474
-2024
-1575
-1836
-2097
-2239
-2380
-2348
-2316
-2331
-2345
-2247
-2149
-2061
-1973
-1858
-1743
-2119
-2494
-2488
-2483
-2478
-2473
-2336
-2199
-2040
-1882
-2181
-2480
-2278
-2077
-2338
-2598
-2212
-1827
-1784
-1742
-1705
-1669
-1565
-1462
-1553
-1643
-1747
-1850
-1817
-1784
-1947
-2110
-1621
-1133
-1442
-1751
-1920
-2090
-2127
-2164
-2431
-2699
-2325
-1950
-1896
-1842
-1485
-1127
-1703
-2280
-2220
-2160
-2092
-2023
-1750
-1477
-1500
-1524
-1474
-1424
-1723
-2023
-2120
-2217
-2647
-3078
-2368
-1657
-1157
-656
-1436
-2216
-1943
-1669
-1759
-1849
-2052
-2255
-1888
-1521
-1318
-1115
-1194
-1273
-1456
-1640
-1959
-2279
-1897
-1514
-1700
-1887
-1472
-1057
-929
-800
-1344
-1888
-1802
-1715
-1738
-1762
-1838
-1914
-1559
-1204
-1412
-1621
-1688
-1756
-2325
-2894
-2585
-2276
-1907
-1538
-1854
-2171
-1926
-1682
-1607
-1532
-2613
-3694
-3430
-3165
-3086
-3006
-2537
-2068
-2490
-2912
-3051
-3191
-3301
-3410
-3259
-3108
-3063
-3019
-3018
-3016
-3073
-3130
-3303
-3476
-3698
-3921
-3705
-3489
-3207
-2925
-3028
-3132
-3063
-2994
-3398
-3802
-3534
-3266
-3116
-2966
-3170
-3375
-3282
-3188
-2970
-2752
-3034
-3316
-3530
-3744
-3673
-3601
-3415
-3228
-2964
-2699
-2422
-2144
-2613
-3083
-3102
-3122
-3078
-3033
-2720
-2407
-2473
-2539
-2757
-2976
-3031
-3085
-3126
-3166
-2801
-2437
-2472
-2507
-2804
-3100
-2755
-2411
-2678
-2945
-2946
-2947
-2725
-2504
-2412
-2321
-2061
-1802
-2216
-2629
-2844
-3059
-2874
-2689
-2412
-2136
-2190
-2244
-1936
-1628
-1923
-2219
-2359
-2498
-2671
-2844
-2578
-2313
-2107
-1902
-2129
-2356
-2070
-1783
-2250
-2717
-2292
-1866
-2159
-2451
-1979
-1507
-1378
-1249
-1529
-1809
-1965
-2121
-2868
-3616
-3153
-2690
-2265
-1839
-1879
-1919
-1724
-1529
-1870
-2211
-2130
-2048
-1813
-1578
-1648
-1718
-1848
-1977
-1853
-1728
-1913
-2098
-2105
-2112
-1873
-1635
-1527
-1418
-1574
-1731
-1675
-1618
-1853
-2087
-2365
-2644
-2117
-1591
-1582
-1572
-1589
-1605
-1555
-1504
-2016
-2528
-2072
-1615
-2175
-2735
-1841
-946
-1022
-1097
-1123
-1149
-1321
-1492
-1683
-1875
-1377
-879
-906
-934
-794
-654
-766
-879
-1239
-1599
-1647
-1695
-1444
-1193
-1080
-966
-1236
-1506
-1710
-1915
-1980
-2046
-2100
-2154
-1785
-1416
-1144
-872
-957
-1041
-1422
-1803
-1817
-1831
-1890
-1948
-1940
-1932
-1557
-1182
-915
-648
-1861
-3074
-2465
-1856
-2038
-2220
-1966
-1712
-1754
-1796
-1243
-690
-1102
-1514
-1535
-1555
-1635
-1714
-1340
-966
-858
-751
-1097
-1443
-1006
-569
-237
94
309
523
619
715
779
842
674
505
-226
-957
-1841
-2724
-2685
-2646
-2508
-2370
-2478
-2586
-2585
-2584
-2675
-2766
-2804
-2843
-2379
-1915
-1695
-1475
-1696
-1917
-1576
-1234
-1480
-1726
-2370
-3014
-1800
-586
-513
-440
-511
-583
-723
-863
-1168
-1472
-1313
-1153
-1183
-1214
-648
-81
-833
-1586
-1222
-858
-992
-1126
-1057
-988
-1100
-1211
-913
-614
-576
-538
-809
-1081
-1040
-999
-1187
-1375
-830
-285
-519
-754
-730
-707
-1078
-1449
-1475
-1501
-1351
-1201
-999
-798
-1027
-1257
-722
-188
-442
-696
-787
-877
-977
-1077
-1240
-1402
-1002
-601
-429
-258
-371
-483
-717
-950
-1067
-1184
-728
-273
-186
-99
-163
-228
-470
-712
-554
-395
-522
-648
-554
-460
-646
-831
-454
-78
-264
-450
-415
-379
-388
-396
-1152
-1908
-750
407
577
746
637
529
242
-45
-304
-563
-105
354
352
350
178
5
66
126
-122
-369
-93
182
280
378
376
375
107
-161
-5
150
176
202
-76
-353
-507
-661
-592
-524
-494
-464
-798
-1132
-1057
-982
-1103
-1225
-986
-747
-897
-1047
-1118
-1190
-1593
-1996
-1841
-1685
-1119
-553
-2158
-3764
-2436
-1107
-854
-601
-998
-1396
-1635
-1874
-2133
-2393
-2151
-1908
-1559
-1210
-1428
-1647
-1672
-1697
-1808
-1919
-2137
-2354
-2048
-1742
-1414
-1085
-1378
-1672
-1896
-2120
-2064
-2008
-2152
-2297
-2066
-1834
-1457
-1080
-1116
-1152
-1496
-1840
-2239
-2638
-2158
-1678
-1669
-1660
-1425
-1190
-1176
-1161
-1451
-1741
-1675
-1608
-1547
-1487
-1655
-1822
-1101
-381
-817
-1253
-1189
-1124
-1394
-1663
-1476
-1289
-1404
-1519
-1478
-1436
-1036
-637
-868
-1098
-1412
-1726
-1516
-1306
-1235
-1164
-1065
-967
-1001
-1035
-1138
-1241
-1272
-1303
-1592
-1881
-1372
-864
-830
-796
-520
-245
-296
-347
-1720
-3092
-2545
-1999
-1663
-1327
-716
-105
-453
-800
-837
-875
-896
-916
-1070
-1225
-1020
-816
-443
-70
-290
-509
-1021
-1534
-1314
-1094
-954
-814
-799
-785
-561
-336
-329
-323
-776
-1229
-1055
-882
-1018
-1154
-723
-291
-184
-77
-24
29
-973
-1975
-1185
-396
-504
-613
-55
502
304
105
-202
-509
-734
-960
-1040
-1120
-1144
-1168
-1032
-896
-421
54
-100
-253
-1289
-2325
-1805
-1285
-1080
-874
-822
-771
-400
-28
-434
-839
-1044
-1250
-1196
-1142
-1004
-865
-559
-253
-419
-585
-594
-604
-746
-888
-1056
-1224
-1146
-1067
-877
-688
-253
183
5
-173
-454
-734
-1038
-1341
-577
186
439
692
769
845
853
862
264
-333
-231
-128
-753
-1377
-1304
-1230
-1472
-1713
-2030
-2347
-2373
-2398
-2322
-2247
-2206
-2166
-1717
-1268
-1456
-1643
-1905
-2166
-1526
-887
-861
-836
-802
-768
-539
-310
-362
-413
-493
-574
-819
-1064
-870
-676
-808
-940
-968
-996
-753
-511
-554
-597
-768
-939
-795
-652
-760
-868
-559
-249
-193
-137
-368
-598
-755
-912
-960
-1008
-1067
-1127
-604
-80
12
104
-269
-643
-783
-923
-731
-538
-521
-505
-490
-474
-321
-169
-529
-890
-862
-834
-705
-576
-140
296
209
121
-170
-460
-371
-282
-226
-170
-774
-1378
-741
-103
-406
-709
-421
-133
-336
-540
-453
-365
-494
-624
-153
319
291
263
-115
-493
-474
-454
-411
-368
-456
-545
-259
28
157
286
488
690
229
-232
-273
-313
-355
-398
418
1233
1033
834
343
-148
-217
-286
-228
-170
-29
111
219
327
221
116
36
-44
-254
-463
-519
-575
-627
-679
-435
-191
-12
167
-300
-767
-1053
-1339
-1570
-1800
-1684
-1569
-1722
-1875
-1445
-1015
-1408
-1802
-1842
-1881
-2039
-2198
-1692
-1186
-2007
-2827
-2656
-2485
-2207
-1929
-2083
-2236
-2626
-3016
-2754
-2493
-2442
-2391
-2156
-1922
-2146
-2370
-2379
-2387
-2473
-2560
-2618
-2676
-2376
-2077
-2170
-2263
-2379
-2495
-2312
-2130
-2433
-2737
-2706
-2674
-2079
-1483
-1864
-2245
-2383
-2521
-2408
-2295
-2595
-2896
-2759
-2622
-2121
-1619
-1673
-1727
-1953
-2179
-2411
-2643
-2557
-2470
-2765
-3061
-2747
-2432
-2272
-2113
-2022
-1931
-2119
-2308
-2523
-2738
-2385
-2032
-2010
-1988
-2052
-2117
-2308
-2499
-2623
-2748
-2509
-2270
-2202
-2135
-1859
-1583
-1724
-1865
-1788
-1711
-2132
-2554
-2284
-2014
-2282
-2550
-1961
-1372
-1709
-2046
-1945
-1843
-2083
-2324
-2490
-2655
-2287
-1919
-1794
-1669
-1484
-1299
-1656
-2012
-1904
-1796
-2244
-2692
-2965
-3239
-2350
-1462
-1618
-1775
-1641
-1507
-2067
-2626
-2241
-1857
-1678
-1499
-1354
-1209
-1900
-2592
-2131
-1671
-1868
-2065
-2083
-2101
-1926
-1751
-1480
-1210
-1333
-1455
-1509
-1562
-1831
-2100
-1944
-1788
-1553
-1319
-1373
-1426
-1305
-1183
-1807
-2431
-2463
-2495
-2379
-2263
-2222
-2181
-1720
-1260
-1777
-2295
-2213
-2132
-2122
-2111
-1894
-1677
-1469
-1260
-2299
-3339
-2237
-1135
-1668
-2202
-2233
-2265
-2095
-1924
-1600
-1276
-1395
-1514
-1398
-1282
-1671
-2060
-2309
-2558
-2049
-1539
-1726
-1914
-1767
-1619
-1169
-718
-1075
-1432
-895
-357
-135
87
226
365
384
402
133
-136
-1060
-1984
-2059
-2135
-2419
-2703
-2669
-2635
-2454
-2274
-2778
-3283
-2912
-2541
-2810
-3079
-2715
-2351
-2137
-1923
-2019
-2115
-1768
-1421
-1552
-1684
-1892
-2101
-1777
-1453
-1308
-1162
-1188
-1215
-897
-579
-898
-1216
-1359
-1501
-1445
-1388
-1553
-1717
-1078
-440
-1228
-2016
-1453
-891
-1161
-1430
-1297
-1165
-725
-286
-670
-1054
-1080
-1105
-1143
-1182
-1352
-1521
-1505
-1489
-1192
-896
-967
-1039
-1046
-1053
-1054
-1055
-1391
-1727
-1483
-1240
-698
-156
-498
-840
-901
-962
-1188
-1415
-1233
-1052
-889
-727
-1052
-1377
-848
-319
-643
-967
-957
-947
-931
-916
-1058
-1199
-1146
-1094
-940
-786
-589
-392
-486
-581
-890
-1199
-1010
-821
-819
-817
-785
-753
-657
-561
-702
-844
-550
-257
-767
-1277
-586
105
-75
-255
-179
-103
-478
-854
-1142
-1430
-1047
-664
-425
-186
-313
-440
-544
-649
-432
-215
-829
-1442
-763
-84
-362
-641
-436
-230
-391
-553
-790
-1028
-1179
-1330
-1205
-1080
-861
-642
-904
-1166
-1400
-1634
-2030
-2427
-2213
-2000
-1874
-1747
-1877
-2008
-2125
-2242
-2068
-1895
-2453
-3012
-2951
-2891
-2768
-2645
-2194
-1744
-1819
-1894
-2222
-2551
-2632
-2713
-2790
-2867
-2213
-1560
-1597
-1635
-1497
-1360
-1948
-2537
-2657
-2776
-2631
-2486
-2411
-2336
-2168
-2000
-1743
-1487
-1857
-2227
-2174
-2122
-2227
-2332
-2491
-2649
-2165
-1681
-1465
-1249
-1504
-1760
-2312
-2863
-2854
-2845
-2621
-2398
-1799
-1199
-1513
-1827
-2025
-2223
-2276
-2329
-1972
-1615
-1604
-1593
-1521
-1448
-1683
-1917
-1893
-1868
-1990
-2112
-2141
-2169
-1775
-1381
-1083
-784
-1029
-1275
-1579
-1884
-2089
-2294
-1916
-1538
-1611
-1684
-1306
-928
-997
-1066
-1623
-2180
-1778
-1375
-1393
-1412
-1347
-1281
-1250
-1218
-1235
-1251
-1408
-1565
-1465
-1366
-1374
-1382
-1222
-1062
-1248
-1435
-1272
-1110
-1307
-1504
-1466
-1428
-1556
-1684
-1279
-875
-927
-980
-1043
-1106
-1286
-1467
-1438
-1409
-1197
-984
-1044
-1104
-875
-645
-535
-426
-1148
-1871
-1665
-1460
-1599
-1738
-1229
-721
-598
-475
-576
-676
-823
-970
-1316
-1662
-1242
-823
-559
-295
-635
-975
-1012
-1050
-880
-710
-881
-1052
-940
-829
-460
-92
-275
-457
-308
-158
-701
-1243
-1265
-1288
-1171
-1055
-831
-607
-751
-895
-975
-1056
-1204
-1351
-1460
-1569
-1519
-1470
-1020
-571
-722
-872
-884
-896
-810
-724
-1076
-1429
-1248
-1068
-805
-542
-399
-256
-409
-561
-780
-999
-1289
-1579
-1693
-1806
-1042
-279
-52
174
-505
-1184
-934
-685
-864
-1044
-865
-686
-164
359
954
1549
1438
1326
1200
1075
1072
1068
969
870
325
-221
-428
-636
-916
-1197
-1503
-1809
-2175
-2541
-2077
-1612
-1653
-1695
-1400
-1106
-1034
-961
-1047
-1132
-1161
-1190
-1050
-909
-413
84
75
65
-41
-148
-500
-852
-584
-316
-419
-522
-2
518
221
-77
-366
-655
-362
-69
-241
-413
-506
-599
-124
352
111
-130
-463
-796
-862
-929
-336
258
140
22
75
128
202
277
168
59
-101
-260
-548
-836
-237
362
292
222
268
315
241
167
216
266
476
685
379
72
250
427
564
700
501
302
7
-289
101
491
414
337
310
284
724
1164
967
771
284
-203
37
276
182
88
248
408
1080
1751
1066
381
83
-215
96
406
645
884
1139
1394
1329
1263
889
516
75
-366
0
366
566
766
1104
1442
1089
736
892
1048
643
237
418
600
803
1007
766
525
900
1275
1087
900
348
-205
-101
3
311
619
256
-106
215
537
229
-79
-350
-621
-786
-952
-660
-368
-281
-193
-342
-492
-648
-803
-1035
-1267
-1171
-1074
-1246
-1418
-1054
-690
-730
-771
-1173
-1574
-1427
-1279
-1329
-1380
-1203
-1025
-1424
-1823
-1250
-677
-796
-915
-1238
-1561
-1217
-873
-1168
-1464
-982
-499
-1286
-2074
-1928
-1782
-1542
-1302
-1428
-1554
-1010
-467
-669
-872
-1011
-1149
-1370
-1590
-1463
-1337
-1371
-1405
-1238
-1072
-1102
-1132
-1143
-1154
-1186
-1218
-1338
-1458
-1327
-1195
-1215
-1234
-1365
-1496
-1071
-647
-1083
-1519
-1393
-1268
-1362
-1457
-1353
-1249
-1044
-839
-968
-1096
-1324
-1553
-1644
-1734
-1406
-1079
-1184
-1289
-1270
-1251
-764
-277
-952
-1626
-1381
-1137
-1068
-999
-686
-373
-493
-613
-848
-1083
-1124
-1165
-1246
-1327
-1045
-762
-1008
-1255
-941
-626
-700
-774
-545
-315
-686
-1057
-1043
-1028
-822
-616
-616
-617
-810
-1004
-1025
-1046
-1021
-996
-1000
-1004
-664
-324
-316
-308
-358
-409
-734
-1059
-1259
-1460
-748
-35
-358
-682
-790
-898
-1049
-1201
-785
-369
-881
-1393
-1250
-1107
-788
-470
-414
-357
-549
-741
-814
-887
-1094
-1300
-770
-240
-86
69
-98
-265
-763
-1261
-1064
-866
-867
-867
-668
-469
-301
-132
-369
-606
-633
-660
-910
-1159
-1252
-1345
-807
-270
-269
-268
-445
-622
-522
-422
-571
-719
-958
-1197
-1161
-1125
-875
-624
-450
-277
-683
-1090
-647
-205
-368
-530
17
564
406
248
140
33
-226
-484
-361
-238
-484
-731
-114
503
294
84
-101
-286
-453
-619
-793
-966
-721
-475
-521
-566
-423
-280
-377
-473
-320
-167
-567
-966
-726
-487
-458
-429
-426
-424
-506
-588
-531
-474
-633
-792
-976
-1161
-462
237
440
643
210
-222
-350
-478
-482
-486
-441
-396
-8
379
327
274
416
559
526
492
858
1224
1284
1345
1675
2005
1761
1516
1539
1562
705
-152
-1246
-2340
-1922
-1504
-1293
-1081
-1185
-1290
-1530
-1771
-1765
-1759
-1724
-1689
-1839
-1990
-1028
-66
274
614
299
-17
141
299
83
-134
-152
-171
-91
-10
166
343
348
353
40
-274
-90
94
93
92
63
34
411
788
623
459
-230
-918
-509
-100
-95
-90
-3
85
579
1072
649
226
157
88
171
253
251
250
424
599
776
953
464
-24
260
544
362
180
76
-28
537
1103
961
820
511
202
568
933
502
70
275
480
487
494
851
1207
896
584
573
562
519
476
509
542
728
915
1264
1613
941
269
267
265
430
595
640
684
1086
1489
1429
1369
1060
750
832
914
864
814
706
598
971
1344
1436
1528
1068
607
570
533
598
664
1115
1566
1537
1508
1434
1360
1263
1165
650
135
435
735
799
862
959
1057
1051
1045
160
-726
-58
610
331
51
85
119
184
249
241
233
-28
-290
-367
-443
-951
-1460
-892
-323
-122
79
-202
-482
-657
-833
-1009
-1185
-1458
-1731
-1207
-683
-594
-504
-807
-1110
-1439
-1767
-1620
-1472
-1374
-1277
-1134
-991
-914
-838
-738
-639
-1093
-1546
-1791
-2036
-1484
-933
-1073
-1213
-1014
-816
-656
-497
-908
-1319
-1150
-981
-1444
-1906
-838
229
-415
-1058
-1032
-1006
-1009
-1011
-1077
-1144
-1088
-1032
-973
-914
-652
-391
-679
-967
-1364
-1761
-1766
-1771
-1261
-751
-535
-320
-417
-514
-630
-746
-1071
-1395
-1432
-1468
-1137
-806
-673
-539
-605
-670
-573
-476
-464
-452
-704
-957
-1071
-1186
-876
-565
-383
-201
-429
-658
-695
-731
-750
-770
-807
-843
-538
-233
-240
-247
-306
-365
-605
-844
-950
-1056
-723
-390
-359
-328
-504
-679
-285
110
-282
-674
-658
-642
-449
-256
-254
-251
-140
-29
-281
-534
-452
-370
-322
-274
-485
-697
-408
-118
-152
-187
-199
-212
-254
-296
-443
-591
-389
-188
-206
-225
-0
225
7
-212
-416
-620
-499
-378
-224
-71
39
148
189
231
-548
-1327
-532
263
-206
-674
-361
-48
210
468
187
-93
35
162
-75
-313
-556
-799
-691
-584
132
848
635
422
315
209
-95
-399
-88
222
403
583
255
-73
177
427
530
632
330
28
14
0
107
213
362
511
560
609
437
266
17
-231
-357
-483
-86
311
416
520
762
1004
515
26
-48
-123
76
274
439
604
852
1099
876
653
947
1240
472
-296
382
1060
1088
1115
994
872
1051
1230
1007
784
656
529
272
15
368
722
324
-74
276
626
306
-13
79
171
216
262
485
707
771
835
777
718
418
117
183
249
345
441
364
287
786
1285
1004
724
456
188
107
26
169
313
79
-154
-2
149
608
1068
839
610
693
776
717
659
771
884
1214
1545
1872
2198
2234
2270
2247
2224
2402
2580
2422
2265
2298
2332
1528
724
317
-89
-401
-712
-982
-1252
-856
-460
-515
-570
-405
-241
-356
-472
-116
240
301
362
520
677
1126
1574
1020
465
696
926
398
-129
-79
-29
702
1434
1299
1165
1231
1296
1007
719
729
740
950
1160
987
814
651
488
959
1431
1159
888
835
783
708
633
1061
1490
1442
1394
1352
1310
1231
1152
814
475
538
601
1006
1410
1336
1262
1225
1187
958
729
773
817
1176
1535
1438
1341
1212
1084
1448
1812
1687
1562
1473
1384
943
502
1253
2004
1989
1974
1730
1485
1351
1217
1137
1058
1304
1551
1739
1928
1925
1923
1631
1339
1505
1672
1427
1182
1252
1322
1532
1741
1749
1757
1734
1710
1635
1560
1576
1592
1867
2142
2121
2099
1905
1711
2120
2528
2031
1534
714
-106
1074
2253
2111
1969
2108
2248
2184
2120
1807
1494
1088
681
1602
2523
2236
1949
1261
573
878
1183
1113
1043
822
602
657
712
795
877
1008
1139
994
849
459
70
-149
-367
-84
200
369
537
396
255
44
-167
-176
-185
-1026
-1867
-817
232
557
881
563
245
-161
-567
-684
-800
-535
-271
-291
-311
-270
-230
-158
-87
-468
-849
-481
-112
-278
-444
-144
155
-53
-261
-305
-349
-560
-771
-774
-776
-662
-548
-342
-136
-75
-15
-32
-49
-260
-472
-565
-658
-510
-363
-268
-173
-131
-89
96
281
-51
-382
-1181
-1979
-1507
-1034
-255
525
-28
-580
-325
-71
-229
-387
-370
-352
-601
-850
-970
-1090
-269
553
333
113
-19
-150
-214
-278
-401
-524
40
605
564
523
398
273
-41
-356
-403
-451
-406
-361
-305
-248
144
537
284
30
17
4
-181
-367
-519
-671
-87
496
169
-157
-651
-1146
-528
90
159
228
-50
-328
213
753
251
-251
89
428
434
440
169
-102
-83
-64
145
354
700
1046
698
350
-5
-360
-72
215
-105
-424
318
1061
762
462
234
6
77
147
-24
-195
-127
-58
84
226
514
801
641
481
318
154
144
135
178
221
331
441
432
422
325
229
307
384
310
236
372
509
902
1295
1369
1443
981
519
504
488
387
287
315
342
746
1150
1235
1320
646
-28
126
280
135
-10
29
69
496
922
448
-27
154
335
283
231
37
-156
-87
-18
323
664
759
854
595
336
379
422
-221
-865
-286
293
295
296
473
650
839
1029
376
-278
-411
-544
-149
245
504
763
826
889
707
526
462
399
472
546
1323
2101
2255
2408
2294
2180
1960
1740
1651
1563
744
-75
-119
-163
-193
-224
-370
-515
-886
-1256
-1331
-1406
-1297
-1188
-738
-289
-130
29
-312
-654
-339
-24
-171
-317
-141
34
420
806
800
793
920
1046
897
749
711
673
460
247
592
936
869
803
813
824
914
1004
651
299
544
789
848
906
1084
1262
1169
1076
793
511
515
518
382
246
749
1251
1254
1256
1463
1670
1051
431
479
527
488
448
629
811
995
1179
1427
1674
1479
1284
1147
1009
1093
1177
952
728
1170
1613
1785
1957
1696
1435
1052
670
941
1213
1439
1665
1707
1749
1453
1158
1292
1426
1065
703
1291
1879
1618
1357
1491
1625
1821
2018
1580
1142
1015
888
1167
1445
1700
1956
1790
1624
1661
1698
1457
1216
1468
1720
1795
1870
1756
1642
2002
2361
2180
1998
1694
1389
1528
1666
1665
1664
1856
2048
1955
1863
1831
1800
1689
1577
1450
1322
1230
1139
1357
1574
1456
1338
889
439
928
1417
1045
673
452
230
493
757
656
555
565
575
-168
-911
-260
392
307
222
162
103
-322
-748
-607
-465
-243
-21
-360
-699
-347
6
82
158
11
-135
-538
-941
-702
-464
-359
-254
-455
-656
-647
-639
-287
66
-373
-813
-768
-724
-626
-528
-381
-234
-136
-38
-108
-177
-277
-378
-343
-307
-586
-865
-741
-617
-278
61
87
113
-306
-725
-494
-264
-615
-966
-622
-278
-98
82
227
371
-205
-781
-633
-484
-945
-1407
-1098
-790
-710
-629
-443
-257
64
386
87
-212
-369
-525
-408
-290
-30
231
503
774
353
-68
-333
-599
-364
-129
-41
47
271
494
-195
-884
-606
-327
-53
221
-308
-836
-529
-221
136
494
451
408
295
181
-352
-885
-632
-379
30
438
334
231
306
382
27
-328
-99
129
301
472
142
-188
310
808
922
1035
364
-307
-243
-179
-160
-141
46
232
593
955
504
52
229
405
187
-31
43
116
152
189
341
492
504
516
319
122
100
78
263
447
664
880
747
615
735
856
812
769
344
-81
-36
9
430
852
1100
1347
1178
1009
388
-234
136
507
540
573
327
81
337
594
412
230
75
-79
-232
-384
248
880
828
776
631
486
555
625
314
2
-29
-60
-120
-180
181
543
753
963
638
313
283
253
-97
-447
-281
-115
146
408
463
518
697
876
547
218
851
1485
1814
2142
2314
2485
2512
2539
2314
2088
2078
2068
1068
69
158
248
407
566
146
-274
-878
-1483
-1497
-1512
-1214
-916
-673
-430
12
454
423
391
300
210
152
94
10
-74
297
669
940
1210
843
477
444
411
300
188
400
612
488
364
748
1131
1144
1157
1440
1722
1154
587
804
1021
1138
1255
1321
1386
1411
1436
1283
1131
943
754
835
915
995
1075
1211
1347
1181
1015
1183
1350
1093
837
901
966
1049
1133
1426
1718
1852
1986
1594
1202
1128
1054
1084
1113
1297
1481
1483
1485
1431
1377
1187
997
1457
1916
541
-835
608
2051
1847
1644
1673
1702
1737
1772
1583
1393
1263
1134
879
625
1320
2016
1971
1926
1854
1783
1645
1506
1587
1668
1571
1474
1860
2246
2307
2369
2122
1875
1525
1175
1378
1581
1808
2035
2080
2125
2094
2063
1821
1580
1476
1373
1088
803
1545
2287
2345
2402
2339
2276
1748
1220
1253
1286
1443
1599
1471
1342
1355
1368
1636
1905
1010
116
459
802
613
423
409
395
406
417
456
494
171
-152
-376
-600
-370
-141
-119
-97
-249
-402
-284
-166
117
399
-235
-870
-571
-272
-453
-633
-405
-177
-167
-157
-456
-756
-621
-486
-614
-741
-541
-342
-289
-235
-228
-222
-361
-499
-635
-772
-1015
-1259
-846
-434
-142
149
-91
-330
-243
-155
-470
-784
-480
-177
-557
-937
-327
284
-208
-700
-761
-822
-753
-685
-570
-454
-221
12
29
46
-185
-417
-247
-77
-340
-602
-473
-344
-378
-413
-205
3
-549
-1101
-919
-737
-945
-1153
-579
-4
-43
-81
62
206
451
697
203
-292
-449
-605
-565
-525
-396
-266
-73
121
-147
-414
-203
8
-177
-362
-499
-636
-331
-26
59
145
1
-143
-256
-369
-544
-719
-497
-275
2
279
334
389
-63
-515
-251
12
-154
-320
-505
-691
-69
552
272
-8
-106
-204
-200
-197
-382
-566
-417
-268
46
360
254
148
-172
-492
-359
-227
-326
-426
-178
69
-12
-93
176
444
121
-203
-190
-177
-515
-853
-418
17
169
321
192
63
57
52
-474
-1000
-609
-218
-130
-43
285
612
520
428
183
-62
-157
-252
64
380
553
727
640
552
738
924
963
1002
268
-467
236
940
533
127
218
309
231
154
-5
-164
-269
-374
-387
-401
-331
-260
67
395
416
436
-244
-923
-682
-440
-363
-285
-274
-263
-113
36
-298
-633
-116
402
-63
-527
-311
-95
-5
85
203
322
295
269
-112
-493
-173
147
-51
-249
99
446
490
534
663
793
1161
1530
1413
1297
1089
881
1718
2556
2103
1650
1390
1130
-88
-1305
-1093
-880
-964
-1049
-1440
-1830
-1948
-2066
-1620
-1174
-1352
-1531
-1271
-1011
-1011
-1012
-912
-811
-61
689
607
526
521
515
-59
-634
-269
95
334
572
447
321
347
373
355
337
-51
-438
-240
-41
255
552
678
803
654
505
335
165
-61
-288
-201
-115
29
172
234
296
516
737
549
362
115
-131
397
924
681
438
125
-187
30
246
277
308
177
45
434
823
677
532
389
245
514
784
445
107
206
305
73
-160
321
802
954
1105
617
130
36
-59
-9
42
190
337
505
674
866
1058
894
729
544
359
-164
-687
-189
310
671
1032
1491
1950
1158
366
714
1062
49
-964
337
1637
1298
959
1278
1597
1132
667
693
718
889
1060
1041
1021
895
768
1027
1286
1176
1066
628
189
205
222
338
453
883
1314
1152
989
863
736
280
-176
-478
-780
-180
421
543
666
492
318
150
-17
-358
-699
-882
-1064
-724
-384
-363
-343
-721
-1099
-1098
-1097
-1209
-1321
-1045
-768
-641
-514
-445
-377
-534
-690
-698
-705
-1086
-1467
-1559
-1650
-1622
-1594
-1170
-746
-653
-559
-848
-1136
-1210
-1284
-1385
-1486
-1257
-1027
-793
-559
-600
-641
-729
-817
-1214
-1612
-1507
-1403
-1381
-1360
-1088
-815
-768
-721
-723
-724
-1242
-1759
-1602
-1445
-1236
-1026
-1041
-1056
-888
-720
-1261
-1803
-1438
-1073
-1024
-975
-775
-574
-566
-557
-777
-998
-928
-858
-1038
-1219
-1090
-961
-877
-792
-410
-29
-601
-1174
-1073
-971
-1203
-1435
-1346
-1258
-962
-665
-667
-670
-554
-437
-583
-729
-930
-1131
-983
-834
-899
-964
-883
-802
-819
-836
-456
-75
-720
-1366
-1533
-1699
-1012
-325
26
378
-246
-871
-657
-443
-1136
-1830
-1051
-272
-57
158
106
55
-33
-121
-355
-589
-823
-1058
-618
-178
-16
145
94
42
-196
-434
-644
-854
-875
-896
-819
-741
-360
20
-65
-149
-194
-239
-372
-506
-488
-471
-519
-566
-363
-160
-558
-956
-1033
-1110
-602
-95
-325
-555
-487
-419
-314
-210
-38
134
181
228
-250
-729
-606
-484
-319
-154
28
211
75
-61
-216
-370
-559
-747
-452
-158
88
335
272
210
219
227
302
377
26
-326
-176
-26
-98
-169
23
216
78
-60
8
75
101
127
96
64
252
441
864
1286
877
469
642
816
474
131
-265
-660
-154
352
836
1320
719
117
308
499
63
-373
-403
-434
-178
79
419
759
478
196
201
207
135
62
-54
-170
-210
-250
200
650
358
65
302
538
180
-178
-134
-90
175
441
410
380
233
87
190
294
124
-46
80
206
227
247
243
239
451
663
914
1164
1721
2277
2309
2342
2293
2245
2435
2624
2446
2269
1507
744
106
-531
-557
-583
-667
-751
-803
-856
-863
-870
-1022
-1174
-1064
-954
-659
-364
-85
194
103
13
379
745
326
-93
-466
-838
44
925
731
537
478
419
382
345
607
869
753
637
697
758
589
420
360
301
450
599
705
811
710
610
650
689
785
881
1119
1358
1059
761
1024
1287
625
-37
295
627
737
847
1189
1531
1195
858
996
1134
504
-126
278
681
1011
1342
1556
1770
1587
1404
954
504
619
735
557
379
835
1291
1497
1703
1674
1644
1361
1077
647
217
859
1502
1312
1121
1598
2076
1847
1619
1338
1058
1052
1046
1136
1226
1452
1678
1629
1579
1846
2113
1533
952
1052
1151
1333
1516
1851
2186
2238
2290
2134
1978
1843
1709
1663
1617
1624
1631
1917
2202
2202
2201
2168
2134
1928
1722
1664
1607
1641
1676
1489
1301
1703
2105
1811
1518
1448
1378
1477
1576
1355
1135
1350
1564
1761
1958
1440
922
794
666
515
365
367
368
504
640
518
396
574
751
394
36
30
23
182
340
212
85
344
603
256
-92
-185
-278
-557
-836
-628
-419
-430
-442
-69
303
344
384
-240
-864
-768
-671
-383
-95
-185
-274
202
678
251
-176
-199
-222
-420
-618
-318
-17
123
264
399
533
201
-132
-216
-301
-632
-964
-324
315
346
377
249
120
50
-20
-312
-603
-599
-595
-621
-648
32
713
732
751
601
452
10
-432
-775
-1119
-365
389
576
764
482
199
291
384
364
345
367
389
192
-6
260
526
697
868
624
380
61
-259
-36
187
347
507
697
886
802
717
371
25
-112
-249
-188
-127
100
327
512
696
889
1082
894
705
503
300
206
112
581
1050
982
915
799
682
624
567
380
193
185
178
342
507
939
1370
917
465
566
668
388
108
309
509
407
305
620
936
795
654
820
985
526
67
307
546
658
770
932
1094
1047
1001
888
776
644
511
677
842
968
1093
1364
1635
1428
1221
1057
893
803
714
894
1075
1175
1275
1427
1578
1476
1373
683
-8
488
985
760
536
558
580
793
1006
718
429
910
1391
810
230
656
1083
480
-123
445
1013
1145
1277
1308
1339
888
436
469
501
736
970
1119
1268
1015
761
624
487
741
994
693
391
827
1264
1400
1536
1118
700
955
1211
1089
967
1193
1418
1916
2413
2793
3173
2949
2724
2455
2187
2181
2175
1650
1124
1093
1062
1118
1174
171
-831
-566
-301
-38
225
407
589
622
656
265
-126
273
671
604
537
583
628
1120
1613
1535
1458
1673
1888
1614
1340
1368
1396
1141
886
1031
1175
1479
1782
1641
1499
1575
1650
1416
1182
1158
1134
1279
1425
1632
1839
1390
941
1364
1787
1194
601
737
873
1504
2134
2021
1908
1976
2044
1866
1689
1365
1042
1244
1446
1731
2017
1963
1910
2249
2587
2075
1562
1507
1451
1275
1099
1522
1945
2131
2318
2049
1779
1580
1381
1484
1587
1608
1630
1530
1429
1973
2516
2637
2759
2218
1677
1856
2035
1192
349
1281
2214
2156
2098
2486
2875
2411
1948
2068
2189
1818
1446
1965
2484
2621
2758
2985
3212
2774
2336
1998
1660
1710
1760
2176
2593
2726
2859
2860
2862
2586
2310
2251
2191
2077
1962
2494
3027
2813
2599
2516
2434
2333
2232
2132
2031
2277
2522
2701
2880
2846
2812
2640
2468
2236
2005
1551
1097
1323
1550
1807
2064
1942
1821
1862
1904
1351
798
902
1006
616
226
721
1216
1047
878
909
940
911
882
447
11
289
567
595
622
874
1125
737
349
302
255
69
-117
103
323
451
580
732
885
494
103
79
55
290
525
207
-111
377
865
709
553
183
-188
219
627
264
-99
-219
-339
214
767
828
889
770
651
438
225
298
371
47
-277
48
373
700
1027
546
64
114
165
-95
-355
88
532
568
605
518
430
530
630
642
654
591
527
326
125
207
289
529
769
637
505
42
-422
-181
60
200
340
353
366
726
1087
568
50
490
929
421
-87
212
512
761
1009
1070
1131
750
368
295
222
120
18
443
867
1053
1239
1180
1120
812
505
322
138
227
317
536
754
804
854
903
952
764
576
614
652
532
413
307
201
751
1302
1315
1328
1217
1106
843
580
446
311
440
569
632
694
1047
1400
1075
750
638
527
721
915
1305
1695
1511
1326
1446
1566
1460
1355
1019
682
682
682
1023
1363
1181
999
1080
1162
871
580
400
220
283
346
881
1417
1015
613
960
1306
1166
1026
719
411
392
373
472
571
898
1225
1044
863
35
-794
-148
497
1037
1576
725
-126
131
389
753
1117
686
255
383
511
819
1128
1166
1204
1344
1485
1538
1591
1951
2311
2274
2237
2294
2351
2350
2348
2540
2733
1922
1112
872
633
174
-285
-299
-313
-535
-756
-501
-247
-42
164
-107
-378
-233
-88
285
658
555
451
466
481
662
843
601
359
487
615
576
536
1152
1767
1667
1567
1311
1055
1354
1653
1169
686
970
1254
1385
1516
1425
1334
1197
1060
1047
1033
1130
1228
1308
1388
1511
1633
1618
1603
1399
1195
1159
1123
983
844
1039
1233
1474
1715
1845
1975
1577
1179
1048
917
574
230
456
681
1216
1751
1473
1195
1639
2084
1802
1521
1148
776
777
778
1343
1908
1841
1775
1777
1779
1704
1628
1483
1338
1474
1609
1642
1675
1822
1968
1744
1519
1748
1976
1564
1152
1569
1987
2075
2164
2125
2086
1931
1777
1618
1458
1321
1183
1313
1443
1962
2480
2363
2245
2094
1943
1627
1311
1855
2399
2404
2409
2614
2819
2581
2343
2287
2231
2092
1953
1710
1466
1777
2087
2215
2344
2376
2408
2325
2242
2049
1856
1519
1181
1310
1440
1418
1395
1189
983
1058
1132
635
137
10
-118
185
487
915
1342
1317
1291
736
180
-84
-347
-582
-817
-198
421
8
-404
173
749
649
548
69
-411
-454
-496
-378
-260
-33
195
213
232
57
-118
-390
-662
-641
-621
-305
12
-5
-22
109
239
-32
-302
-474
-647
-802
-956
-673
-390
-364
-338
-158
22
-282
-586
-613
-640
-494
-348
-469
-591
-658
-725
-842
-958
-570
-182
-288
-394
-551
-708
-641
-575
-210
156
33
-91
-110
-128
-313
-497
-464
-431
-276
-120
-60
-1
-76
-151
-336
-521
-544
-567
-581
-594
-431
-269
-262
-254
-217
-179
-222
-264
-344
-423
-417
-411
96
603
208
-186
-153
-121
-235
-350
-604
-859
-1162
-1464
-901
-337
-727
-1117
-326
465
99
-267
-197
-127
-347
-567
-253
61
59
58
168
278
-112
-503
-537
-572
-329
-87
-129
-171
-138
-105
-141
-177
-354
-530
-540
-549
-491
-432
-202
28
168
308
64
-180
-223
-267
-515
-762
-655
-549
-434
-320
-104
113
299
484
-177
-837
-455
-73
-434
-796
-147
502
194
-114
-1
113
-93
-300
-650
-1000
-262
475
436
398
127
-145
69
283
24
-235
-482
-730
-536
-342
-98
146
-1
-147
-319
-490
-581
-672
-834
-996
-560
-125
-241
-358
-369
-380
-499
-618
-650
-682
-763
-844
-734
-624
-348
-72
-146
-219
-639
-1060
-916
-771
-1158
-1544
-1098
-651
-609
-566
-732
-898
-768
-639
-421
-202
-363
-524
-245
35
479
922
1094
1265
1438
1612
1240
867
704
541
42
-456
-707
-958
-956
-954
-1478
-2002
-2327
-2653
-2712
-2771
-2403
-2034
-1944
-1855
-1763
-1670
-1374
-1078
-1329
-1580
-1513
-1447
-1357
-1266
-976
-685
-674
-662
-1339
-2016
-1560
-1103
-1104
-1106
-1656
-2206
-1514
-823
-865
-907
-558
-209
-462
-716
-1077
-1438
-946
-454
-634
-815
-849
-882
-849
-817
-977
-1138
-1736
-2334
-1526
-719
-899
-1078
-1004
-931
-981
-1031
-1286
-1540
-1441
-1343
-1180
-1017
-972
-926
-867
-808
-982
-1156
-1406
-1655
-1753
-1851
-1788
-1726
-1535
-1344
-1231
-1117
-1652
-2188
-1838
-1489
-1675
-1860
-1523
-1186
-875
-563
-834
-1104
-1301
-1498
-1710
-1921
-1706
-1490
-1227
-964
-1039
-1114
-1040
-966
-1158
-1351
-1485
-1619
-1831
-2042
-1441
-841
-756
-671
-726
-780
-825
-870
-1283
-1696
-1510
-1324
-1227
-1130
-780
-429
-1392
-2355
-2466
-2578
-2028
-1478
-1147
-816
-1198
-1580
-1403
-1225
-1193
-1162
-1533
-1905
-2018
-2132
-1791
-1449
-1193
-937
-1052
-1167
-1424
-1681
-1649
-1616
-2375
-3134
-2947
-2760
-2719
-2677
-2580
-2482
-2552
-2622
-2895
-3168
-3382
-3597
-3346
-3094
-3402
-3709
-3636
-3563
-3537
-3510
-3739
-3969
-3985
-4000
-3973
-3947
-3882
-3816
-3797
-3778
-3856
-3934
-3932
-3931
-4446
-4962
-4524
-4087
-4001
-3916
-3819
-3722
-4137
-4552
-4352
-4153
-4259
-4365
-4294
-4223
-3864
-3505
-3631
-3757
-3776
-3794
-4062
-4330
-4278
-4226
-4616
-5005
-4734
-4464
-4382
-4300
-4367
-4435
-4518
-4601
-4649
-4696
-4409
-4121
-3954
-3787
-4755
-5723
-5148
-4574
-4601
-4627
-4620
-4613
-4346
-4079
-4199
-4319
-4149
-3979
-4529
-5079
-4925
-4772
-4728
-4684
-4732
-4780
-4648
-4516
-4311
-4106
-4079
-4053
-4591
-5128
-4902
-4676
-4726
-4776
-4393
-4011
-4006
-4000
-4609
-5218
-5139
-5061
-4913
-4766
-4604
-4442
-4209
-3975
-4346
-4717
-4740
-4764
-4943
-5122
-4898
-4674
-4510
-4346
-4282
-4218
-4054
-3890
-3954
-4019
-4300
-4580
-4827
-5075
-4727
-4378
-4425
-4473
-3843
-3213
-3433
-3653
-3860
-4068
-4387
-4706
-4549
-4392
-4049
-3706
-3718
-3730
-4040
-4351
-4477
-4602
-4514
-4426
-4171
-3916
-3875
-3833
-3841
-3849
-4173
-4496
-4494
-4492
-4434
-4376
-4241
-4106
-4226
-4346
-4919
-5492
-4986
-4480
-4346
-4212
-4223
-4234
-4100
-3965
-4005
-4045
-4000
-3956
-4212
-4469
-4663
-4857
-4430
-4004
-4015
-4026
-3835
-3644
-3800
-3957
-3925
-3894
-4082
-4270
-4350
-4431
-3830
-3228
-3227
-3226
-3406
-3585
-3782
-3979
-3752
-3525
-3509
-3494
-3487
-3481
-3536
-3592
-3900
-4209
-4239
-4268
-4507
-4745
-4341
-3937
-3661
-3384
-3689
-3993
-4026
-4058
-3949
-3840
-4356
-4872
-4378
-3884
-3724
-3564
-3540
-3515
-3846
-4177
-4150
-4123
-3985
-3848
-4327
-4807
-4152
-3496
-3302
-3109
-3724
-4340
-4106
-3872
-4011
-4151
-4181
-4210
-3836
-3462
-3255
-3048
-3290
-3532
-3307
-3083
-2645
-2208
-2170
-2132
-1990
-1848
-1603
-1358
-1600
-1843
-2544
-3246
-3832
-4419
-4493
-4566
-4447
-4328
-5042
-5756
-5552
-5347
-4955
-4563
-4739
-4915
-4612
-4308
-3715
-3121
-2978
-2836
-3386
-3936
-3788
-3639
-3680
-3722
-3750
-3778
-3418
-3059
-3102
-3145
-3121
-3097
-3390
-3682
-3744
-3806
-3628
-3449
-3398
-3347
-3039
-2732
-2996
-3260
-3499
-3739
-3664
-3589
-3669
-3749
-3571
-3393
-3381
-3369
-3241
-3113
-3522
-3931
-3630
-3328
-3218
-3108
-3176
-3244
-3173
-3103
-3232
-3361
-3716
-4072
-3861
-3651
-3459
-3267
-2973
-2679
-2594
-2508
-2921
-3334
-3718
-4102
-4065
-4028
-3925
-3822
-3267
-2712
-2564
-2417
-2525
-2633
-3160
-3687
-3405
-3124
-2866
-2608
-3106
-3604
-2925
-2245
-2810
-3374
-3205
-3037
-3289
-3542
-2855
-2168
-2332
-2496
-2219
-1941
-2239
-2538
-2677
-2817
-2878
-2939
-2743
-2547
-2197
-1847
-1679
-1510
-2206
-2902
-2615
-2327
-2397
-2468
-2778
-3089
-2395
-1702
-1716
-1730
-1446
-1161
-2485
-3809
-3452
-3095
-2652
-2208
-2073
-1937
-2133
-2329
-2557
-2784
-2979
-3174
-3090
-3006
-2567
-2127
-2369
-2610
-2750
-2890
-3061
-3233
-3386
-3539
-3881
-4222
-3849
-3477
-3561
-3646
-3578
-3510
-3532
-3553
-3922
-4290
-4316
-4342
-4303
-4264
-3722
-3180
-3086
-2992
-3738
-4484
-4631
-4778
-4422
-4066
-3985
-3904
-3551
-3197
-3526
-3855
-3898
-3940
-3984
-4029
-4214
-4399
-4119
-3840
-3937
-4033
-3865
-3697
-4011
-4326
-4258
-4191
-3968
-3745
-3842
-3940
-3752
-3564
-3683
-3802
-3594
-3386
-3894
-4401
-4343
-4285
-3928
-3572
-3595
-3618
-3620
-3622
-3785
-3948
-3815
-3683
-3737
-3790
-4071
-4353
-3860
-3366
-3284
-3202
-3236
-3270
-3570
-3871
-4166
-4461
-3884
-3307
-3073
-2839
-2830
-2821
-3429
-4037
-4140
-4243
-3879
-3515
-3249
-2982
-3206
-3431
-3788
-4145
-3649
-3153
-3340
-3527
-3486
-3445
-3146
-2847
-2758
-2669
-2669
-2668
-2981
-3295
-3271
-3247
-3303
-3360
-3498
-3636
-3198
-2759
-2603
-2448
-2538
-2629
-3030
-3431
-2925
-2419
-2271
-2123
-2213
-2303
-2786
-3269
-3286
-3303
-3282
-3262
-2827
-2393
-2223
-2053
-2384
-2716
-2628
-2540
-2694
-2848
-2946
-3044
-2779
-2513
-2344
-2176
-2225
-2273
-2206
-2139
-2720
-3302
-3200
-3098
-2796
-2494
-2166
-1838
-1962
-2086
-2331
-2576
-2677
-2779
-2662
-2544
-2039
-1534
-1646
-1758
-1900
-2042
-2047
-2052
-2417
-2782
-2787
-2791
-2321
-1851
-1564
-1277
-1591
-1904
-1849
-1794
-2015
-2236
-2274
-2312
-2199
-2086
-1820
-1555
-1495
-1435
-1575
-1716
-1611
-1506
-1947
-2387
-1843
-1298
-1347
-1397
-1806
-2215
-1726
-1237
-1109
-981
-1217
-1454
-1140
-826
-1003
-1179
-824
-469
-759
-1050
-1413
-1776
-1943
-2110
-1093
-76
-266
-457
-419
-382
-671
-959
-896
-833
-1108
-1384
-1260
-1137
-810
-482
-811
-1141
-1285
-1430
-1438
-1446
-1371
-1295
-1036
-776
-1012
-1249
-1020
-792
-1257
-1722
-1462
-1202
-1701
-2201
-1339
-478
-397
-316
-447
-578
-788
-998
-880
-763
-1191
-1619
-1237
-854
-829
-804
-687
-570
-925
-1281
-1102
-923
-829
-735
-711
-687
-90
506
410
313
459
605
718
831
773
715
1216
1718
1421
1123
729
336
-1376
-3088
-2871
-2654
-2327
-2001
-2021
-2041
-1956
-1872
-1725
-1577
-1399
-1221
-1577
-1933
-1423
-914
-763
-612
-118
375
380
385
-58
-502
-449
-396
-297
-198
-243
-287
-186
-85
155
395
171
-53
-238
-422
-287
-152
-34
84
273
462
411
360
126
-107
-164
-222
87
395
611
827
980
1133
481
-171
148
466
375
285
337
389
348
306
538
770
814
857
552
247
375
503
366
229
583
936
1222
1509
1148
787
615
443
609
775
772
769
933
1097
989
882
861
840
887
935
338
-259
290
839
811
783
1198
1614
1447
1280
816
353
573
793
918
1043
1460
1877
1728
1579
1441
1302
1270
1238
1172
1106
1251
1395
1642
1889
1882
1874
1114
354
670
986
1042
1098
1453
1808
1649
1489
1771
2053
1867
1681
1473
1264
1265
1267
1435
1602
1335
1067
990
913
1251
1589
1210
831
945
1059
1114
1169
1309
1448
1228
1009
903
797
586
374
184
-6
4
14
214
415
579
744
397
50
-57
-163
-473
-784
-393
-1
65
131
-217
-565
-665
-766
-936
-1107
-909
-711
-386
-62
-159
-257
-208
-159
-260
-360
-293
-226
-601
-977
-709
-441
-113
214
69
-75
-2
70
-346
-763
-503
-244
-173
-102
-69
-35
17
69
239
408
-362
-1131
-842
-552
-149
254
288
321
186
50
138
227
136
45
-254
-552
-349
-145
17
179
77
-26
53
131
-126
-384
-347
-310
-266
-221
8
236
252
268
-6
-281
-71
139
-164
-467
-197
73
267
461
737
1014
647
280
92
-96
95
287
556
825
843
861
695
529
553
577
244
-89
191
471
440
410
501
593
688
784
616
448
350
252
230
208
273
337
723
1109
937
766
668
570
473
377
544
710
664
618
651
684
768
851
716
582
415
248
312
376
364
352
949
1546
1438
1330
825
319
246
173
402
631
759
888
1219
1550
1485
1420
1077
734
604
475
434
392
648
903
918
932
979
1027
903
778
692
606
747
888
1103
1317
1306
1295
1378
1461
1514
1566
1170
774
1103
1433
1723
2013
1795
1577
1539
1500
1430
1360
1370
1379
1211
1042
1427
1812
1846
1880
1932
1983
1531
1080
1014
948
1024
1100
1324
1547
1480
1413
1087
761
900
1039
997
955
1103
1252
1314
1377
1547
1717
1686
1655
1659
1663
1193
723
880
1038
1180
1322
1460
1597
1584
1570
1172
774
1050
1326
1648
1971
2110
2250
1579
907
1331
1755
1554
1353
1477
1601
1813
2025
2844
3662
3829
3995
3729
3463
3362
3262
2571
1880
1918
1955
1686
1417
1195
974
630
286
181
75
118
162
525
887
820
754
1179
1604
906
207
731
1255
1272
1288
1480
1671
1370
1068
1375
1682
2050
2417
1820
1223
1613
2004
1874
1744
2315
2886
2445
2005
1973
1940
1882
1825
1826
1826
1917
2009
2241
2474
2388
2302
2085
1869
1847
1826
1890
1954
2160
2366
2461
2555
2523
2491
2154
1816
1689
1563
1699
1835
2103
2371
2627
2883
2917
2950
2341
1733
1741
1749
1294
838
1215
1592
2439
3285
3187
3088
2479
1870
2149
2428
2376
2324
2501
2678
2626
2574
2770
2966
2736
2507
2533
2560
2373
2186
2587
2987
2984
2982
2976
2969
2480
1990
2065
2140
2391
2641
2823
3005
3132
3260
2933
2606
2764
2921
2686
2451
2508
2565
2908
3251
3138
3025
3110
3195
2887
2578
2156
1735
2429
3124
3269
3414
3392
3371
3525
3678
3481
3283
2924
2565
2584
2603
2775
2946
3068
3190
2819
2447
2325
2204
1973
1743
1648
1553
1821
2089
2187
2285
1980
1676
1575
1474
1275
1076
1068
1061
1247
1433
1318
1204
836
468
442
416
74
-268
276
821
1113
1406
1126
846
655
464
548
631
271
-89
270
628
613
599
662
725
852
979
345
-288
-129
30
232
433
403
373
453
533
469
405
373
341
499
656
419
181
276
371
956
1541
1073
605
326
48
-148
-344
-255
-166
-70
27
235
443
143
-157
-332
-507
108
723
483
244
217
189
284
378
737
1096
644
191
261
332
306
281
792
1302
1222
1141
828
515
434
352
316
279
429
579
791
1002
1297
1592
1056
520
432
344
118
-109
72
253
394
536
1059
1582
1011
439
207
-25
547
1119
1038
956
929
902
1185
1468
460
-549
312
1174
944
714
935
1155
1038
921
862
804
1011
1217
564
-90
264
618
928
1238
813
388
690
991
1183
1376
1047
718
818
917
685
453
673
892
1102
1312
1243
1173
1152
1132
730
328
836
1344
1352
1359
1351
1344
1310
1276
762
247
1223
2199
1519
839
1085
1331
1426
1522
1144
767
629
492
468
444
529
614
1064
1514
1173
831
458
84
243
402
428
454
394
334
514
694
690
685
578
470
233
-5
72
149
813
1477
1422
1368
1203
1037
806
575
497
418
433
448
827
1205
1216
1228
919
610
681
752
828
905
1038
1171
1813
2455
2399
2342
2341
2340
2257
2174
1507
840
398
-43
276
595
217
-160
-376
-593
-741
-890
-1276
-1662
-1147
-631
-214
203
555
906
731
557
227
-104
352
808
777
746
662
578
1037
1497
1221
944
985
1026
523
19
199
380
888
1396
1432
1469
1178
886
667
447
536
624
784
943
975
1007
966
925
838
752
778
804
632
461
645
830
1068
1306
1214
1122
1022
923
851
779
394
10
745
1480
1070
661
1240
1820
1661
1502
1100
699
748
796
938
1080
1136
1191
1296
1401
1398
1396
1308
1219
1014
808
1118
1427
1658
1889
1845
1802
1313
824
664
505
943
1381
1383
1385
1504
1623
1247
871
1371
1871
1574
1277
1359
1440
1779
2118
2169
2221
1852
1482
1602
1723
1674
1626
1677
1729
1902
2076
2273
2469
2276
2083
1887
1691
1669
1647
1472
1296
1787
2278
2160
2041
2192
2343
2043
1744
1509
1275
1176
1078
1460
1842
1922
2003
1718
1433
1220
1006
473
-60
-620
-1179
-152
875
735
594
772
949
454
-42
-158
-275
-241
-207
-22
163
-43
-248
-22
205
42
-120
-387
-653
-587
-521
-339
-157
45
248
-33
-315
-359
-403
-536
-670
-833
-996
-605
-214
-105
3
-112
-226
-283
-340
-485
-630
-705
-779
-630
-481
-279
-76
158
391
-657
-1706
-1304
-902
-703
-504
-189
125
335
544
206
-132
-268
-405
-422
-439
-562
-685
-693
-700
-247
207
-137
-481
-314
-147
-397
-647
-703
-759
-304
150
166
182
102
22
-91
-205
-394
-583
-629
-675
-142
391
180
-31
-1
28
-18
-64
-207
-350
-504
-658
-156
347
-67
-480
-175
130
131
132
-91
-314
-268
-223
-171
-118
133
385
300
216
188
159
323
488
203
-82
135
352
232
113
182
251
40
-171
-87
-4
134
271
315
359
29
-302
26
353
120
-113
-30
53
171
288
306
323
219
116
287
458
573
687
127
-432
-180
72
546
1020
860
701
191
-318
70
458
473
489
525
561
722
882
990
1098
1083
1067
752
437
376
314
244
174
581
988
676
364
344
324
357
389
113
-164
0
164
481
799
674
550
582
615
276
-63
-33
-3
91
185
470
755
942
1129
273
-582
-379
-176
18
212
370
529
670
812
837
862
669
476
256
36
55
74
249
424
826
1229
1104
979
864
748
1107
1466
1581
1695
1886
2077
2232
2387
2365
2344
2273
2202
1437
672
-283
-1237
-738
-239
-73
93
-137
-366
-542
-718
-575
-431
-973
-1516
-460
595
769
943
1091
1240
827
415
348
281
548
815
638
461
1053
1645
1649
1653
1408
1163
964
764
893
1022
1077
1131
1159
1187
1313
1439
1243
1047
807
567
663
760
1097
1434
1522
1609
1513
1417
997
578
765
951
760
570
513
456
1111
1766
1633
1500
1574
1648
886
124
234
345
884
1423
1710
1997
2254
2511
1998
1484
1371
1257
1374
1491
1638
1784
1845
1906
1815
1724
1508
1293
1324
1356
1317
1278
1322
1366
1564
1762
1916
2069
1749
1430
1461
1492
1590
1688
1768
1849
2045
2241
2037
1832
1798
1764
1322
881
665
449
1390
2331
2241
2152
2195
2237
2209
2181
1929
1676
1867
2058
2035
2011
2183
2356
2089
1822
1861
1899
1625
1352
1478
1605
1601
1597
2018
2439
1968
1498
1282
1066
1015
963
825
688
1111
1534
1374
1213
982
751
460
168
234
301
-156
-614
-662
-710
109
927
572
218
-442
-1101
-774
-447
-249
-50
-252
-453
-17
420
-270
-961
-714
-468
-889
-1311
-1210
-1109
-684
-259
-441
-623
-770
-917
-967
-1018
-1146
-1275
-856
-438
-290
-143
-465
-788
-702
-616
-791
-965
-1080
-1196
-1058
-919
-868
-816
-776
-737
-826
-915
-1048
-1180
-916
-652
-649
-647
-842
-1037
-735
-433
-788
-1143
-1266
-1388
-1340
-1292
-811
-331
-370
-409
-859
-1309
-776
-242
-556
-870
-1012
-1154
-884
-614
-623
-632
-363
-94
-525
-955
-1001
-1047
-1065
-1084
-1054
-1024
-702
-380
-321
-261
-400
-539
-783
-1026
-1034
-1041
-916
-791
-572
-353
-430
-507
-532
-557
-972
-1386
-1386
-1385
-1000
-616
-428
-241
-342
-443
-601
-759
-881
-1003
-906
-809
-581
-353
-340
-326
-413
-500
-538
-575
-810
-1045
-679
-312
-511
-711
-528
-345
-462
-579
-665
-752
-1023
-1295
-1031
-767
-587
-408
-523
-637
-589
-540
-599
-659
-856
-1054
-901
-748
-630
-511
-528
-544
-314
-84
-570
-1056
-1163
-1270
-976
-682
-1041
-1399
-301
798
600
401
95
-211
-312
-414
-513
-612
-454
-297
-422
-546
-660
-774
-985
-1196
-1309
-1421
-1230
-1040
-1028
-1015
-713
-411
-593
-774
-830
-887
-1357
-1827
-1783
-1739
-1522
-1306
-1063
-820
-940
-1059
-1183
-1307
-1374
-1441
-1536
-1630
-1708
-1785
-1347
-908
-1234
-1560
-1238
-916
-1261
-1607
-1599
-1591
-1008
-425
-597
-769
-1183
-1597
-1357
-1117
-589
-62
53
169
412
656
867
1078
530
-18
-533
-1048
-1516
-1984
-2069
-2154
-2191
-2228
-2538
-2847
-2955
-3064
-3100
-3135
-2938
-2742
-2549
-2356
-2286
-2215
-2012
-1809
-1628
-1447
-1730
-2013
-1921
-1829
-1508
-1187
-1354
-1520
-1451
-1381
-1320
-1259
-1195
-1131
-1653
-2175
-1366
-557
-1005
-1454
-1358
-1261
-1247
-1234
-1166
-1098
-1474
-1850
-1534
-1217
-1005
-792
-803
-814
-1038
-1263
-1364
-1465
-1544
-1622
-1444
-1267
-926
-584
-802
-1019
-908
-796
-1095
-1393
-1326
-1259
-1478
-1696
-1181
-667
-689
-710
-846
-982
-1359
-1736
-1811
-1886
-1550
-1214
-834
-454
-452
-451
-606
-761
-515
-270
-1157
-2045
-1300
-556
-441
-326
-483
-640
-721
-802
-970
-1137
-989
-841
-1011
-1180
-1059
-937
-588
-239
-328
-417
-934
-1451
-1350
-1249
-784
-319
-62
195
-291
-777
-853
-930
-1148
-1366
-1044
-722
-749
-776
-212
352
-41
-434
-359
-285
-400
-515
-374
-233
-1095
-1956
-1787
-1618
-346
926
370
-186
-381
-576
-862
-1149
-875
-601
-727
-854
-883
-912
-987
-1062
-1832
-2603
-2488
-2372
-1993
-1615
-1426
-1237
-1563
-1890
-2118
-2346
-2298
-2251
-2366
-2482
-2640
-2798
-2216
-1634
-1754
-1873
-2071
-2270
-2527
-2784
-2779
-2773
-2882
-2991
-2432
-1874
-2015
-2157
-2486
-2815
-2731
-2647
-2543
-2440
-2531
-2623
-2384
-2146
-2188
-2230
-2695
-3161
-3039
-2917
-2969
-3020
-2675
-2331
-2081
-1832
-2004
-2177
-2255
-2332
-2569
-2805
-2955
-3106
-3392
-3679
-3123
-2567
-2312
-2058
-2111
-2164
-2367
-2570
-2567
-2565
-2241
-1918
-1859
-1799
-2176
-2553
-2729
-2905
-2843
-2781
-2452
-2123
-2438
-2754
-2291
-1828
-1724
-1620
-2092
-2563
-2902
-3241
-3082
-2924
-2366
-1808
-1951
-2093
-2198
-2304
-2205
-2106
-3175
-4242
-2799
-1355
-1435
-1515
-1732
-1949
-1941
-1934
-2204
-2473
-2527
-2582
-2524
-2466
-2250
-2034
-1997
-1960
-2199
-2438
-2264
-2090
-2260
-2430
-2315
-2200
-2173
-2146
-2054
-1961
-1957
-1953
-2234
-2515
-2576
-2637
-2516
-2396
-2168
-1940
-2103
-2265
-2284
-2303
-2479
-2655
-2700
-2745
-2742
-2739
-2609
-2480
-1896
-1312
-1853
-2393
-2543
-2692
-2466
-2239
-1878
-1517
-1803
-2089
-1793
-1497
-1917
-2338
-2157
-1976
-1948
-1919
-2109
-2298
-1990
-1681
-1546
-1410
-1379
-1347
-1518
-1689
-1748
-1806
-1761
-1716
-1351
-985
-1297
-1610
-1652
-1693
-1978
-2263
-2253
-2244
-2016
-1787
-1554
-1321
-1989
-2656
-2341
-2027
-2137
-2246
-2336
-2425
-1890
-1355
-1383
-1412
-1587
-1762
-2068
-2375
-2248
-2121
-2087
-2052
-1979
-1906
-1476
-1047
-1216
-1385
-1696
-2007
-2119
-2231
-2147
-2064
-2026
-1988
-1682
-1375
-1516
-1657
-1904
-2150
-2179
-2208
-2014
-1820
-1474
-1128
-481
165
135
106
-64
-233
-127
-20
-615
-1210
-1751
-2293
-2381
-2468
-2794
-3120
-3237
-3354
-3354
-3354
-3329
-3303
-3408
-3512
-2729
-1947
-2043
-2139
-1937
-1736
-1915
-2094
-2061
-2027
-1736
-1445
-1256
-1066
-1089
-1112
-1348
-1583
-1774
-1965
-1702
-1439
-1480
-1521
-1280
-1040
-932
-824
-1092
-1360
-1801
-2242
-1794
-1346
-1318
-1291
-1233
-1176
-1048
-920
-1198
-1476
-1458
-1439
-1342
-1245
-1102
-960
-675
-390
-369
-349
-1039
-1729
-1381
-1033
-1149
-1265
-1194
-1122
-521
80
-395
-871
-811
-751
-1073
-1395
-1071
-748
-600
-453
-201
52
-881
-1815
-774
269
129
-10
-559
-1107
-787
-467
-399
-331
-319
-308
-577
-846
-1031
-1217
-910
-603
-569
-534
-316
-99
-386
-674
-279
115
-337
-788
-673
-558
-313
-68
110
289
136
-17
-258
-499
-510
-521
-156
210
39
-132
274
681
686
692
452
211
-113
-437
-158
120
225
330
424
518
198
-122
128
377
161
-55
60
175
243
310
367
424
149
-126
-527
-928
-938
-947
-1032
-1118
-1034
-950
-880
-809
-756
-703
-1145
-1587
-1666
-1745
-1716
-1686
-1630
-1575
-1464
-1352
-1401
-1450
-1678
-1906
-2160
-2414
-2217
-2020
-1777
-1534
-1364
-1195
-1260
-1325
-2105
-2884
-2584
-2285
-1975
-1664
-1379
-1094
-1214
-1335
-1529
-1724
-2176
-2628
-2230
-1833
-1729
-1625
-1398
-1171
-1450
-1729
-1584
-1438
-1937
-2436
-2140
-1844
-1867
-1891
-1810
-1730
-1694
-1659
-1928
-2196
-2201
-2205
-2568
-2931
-2734
-2537
-2421
-2304
-2224
-2143
-2324
-2504
-3215
-3927
-3241
-2555
-2386
-2218
-2308
-2399
-2452
-2505
-2278
-2051
-2243
-2436
-2411
-2386
-2139
-1892
-1697
-1502
-1653
-1803
-1971
-2139
-2411
-2684
-2572
-2459
-1841
-1223
-1294
-1364
-1608
-1852
-1732
-1613
-1760
-1907
-2008
-2110
-1965
-1820
-1699
-1578
-1422
-1266
-1618
-1969
-2026
-2083
-1972
-1860
-1662
-1464
-1365
-1267
-1192
-1117
-1605
-2093
-1753
-1412
-1889
-2366
-2165
-1963
-1444
-925
-1202
-1478
-1423
-1367
-1578
-1789
-1926
-2064
-2100
-2135
-1710
-1284
-987
-690
-1146
-1602
-1656
-1710
-1498
-1286
-1039
-792
-685
-577
-967
-1358
-1106
-853
-1341
-1829
-1721
-1613
-1329
-1045
-808
-570
-584
-599
-800
-1001
-1013
-1025
-871
-717
-665
-613
-870
-1128
-892
-657
-1149
-1642
-1526
-1410
-1184
-957
-935
-913
-955
-997
-833
-669
-1279
-1888
-1936
-1983
-1653
-1323
-986
-648
-638
-629
-657
-686
-898
-1109
-1400
-1691
-1631
-1570
-1398
-1226
-761
-296
-342
-388
-781
-1174
-1551
-1928
-1571
-1214
-1038
-861
-738
-614
-695
-775
-859
-942
-1178
-1415
-1488
-1560
-1131
-703
399
1500
1484
1468
1125
782
611
441
370
299
-411
-1122
-1165
-1207
-1555
-1903
-2327
-2750
-2829
-2909
-2809
-2710
-1888
-1066
-1150
-1234
-1472
-1710
-1477
-1245
-1065
-886
-937
-988
-548
-107
-272
-436
-706
-976
-910
-844
-704
-563
-621
-679
-373
-67
-155
-242
-188
-134
-162
-189
-570
-951
-861
-770
-227
316
262
208
-39
-287
-343
-399
-563
-728
-509
-290
-162
-34
313
661
702
744
-56
-856
-531
-206
-181
-156
151
458
364
271
-13
-297
-52
194
-47
-287
-15
256
156
57
126
195
265
335
231
128
-194
-516
-112
293
589
886
765
644
426
208
61
-85
-208
-331
239
808
443
77
450
824
715
607
317
28
-47
-123
30
183
773
1362
1157
952
1086
1220
484
-253
252
758
925
1092
1418
1744
1386
1028
745
462
561
660
670
681
787
893
1115
1338
1551
1763
875
-14
176
366
524
682
733
785
899
1013
1015
1017
728
440
204
-32
-113
-194
-228
-263
114
491
-18
-527
-297
-67
-663
-1259
-909
-558
-504
-450
-285
-120
-481
-843
-883
-922
-813
-704
-1049
-1393
-1289
-1185
-881
-578
-629
-680
-1171
-1662
-1274
-887
-982
-1076
-1261
-1446
-1317
-1188
-1131
-1074
-1107
-1141
-1509
-1876
-1488
-1100
-1215
-1329
-852
-376
-903
-1430
-1635
-1840
-2080
-2320
-1740
-1160
-895
-630
-921
-1212
-1062
-911
-857
-804
-972
-1140
-1474
-1807
-1412
-1017
-740
-463
-728
-993
-1359
-1726
-1571
-1417
-1581
-1745
-1144
-542
-588
-634
-627
-620
-1225
-1831
-1500
-1168
-1012
-855
-770
-685
-571
-458
-505
-553
-825
-1097
-1229
-1361
-1796
-2230
-1391
-552
-379
-205
-367
-528
-908
-1288
-1255
-1222
-1173
-1124
-1334
-1544
-906
-268
-829
-1390
-1069
-748
-894
-1040
-1049
-1057
-629
-201
-182
-162
-267
-372
-695
-1018
-1285
-1552
-1446
-1340
-877
-414
-606
-797
-715
-633
-723
-812
-1056
-1299
-959
-620
-463
-307
-522
-738
-696
-654
-789
-925
-747
-569
-731
-892
-520
-149
-182
-216
-201
-186
-1016
-1846
-1957
-2069
-1494
-919
-1045
-1171
-1009
-848
-881
-914
-1076
-1237
-1423
-1609
-1653
-1698
-1262
-825
-961
-1098
-1330
-1562
-1532
-1502
-1409
-1316
-1722
-2129
-1774
-1418
-969
-519
-948
-1377
-1535
-1692
-1532
-1372
-1262
-1153
-911
-670
-505
-339
-1076
-1813
-1652
-1490
-1505
-1521
-1131
-740
-475
-209
447
1103
853
604
649
694
266
-161
-1018
-1874
-1406
-938
-1543
-2148
-2144
-2139
-2463
-2787
-2692
-2597
-2576
-2556
-2310
-2064
-1630
-1197
-1412
-1626
-1626
-1626
-1488
-1349
-1069
-790
-593
-397
-234
-70
-414
-757
-978
-1198
-883
-569
-460
-352
-630
-909
-659
-410
-141
127
-334
-795
-598
-400
-169
62
-145
-352
-221
-90
-35
20
-334
-688
-541
-394
-464
-535
-180
175
198
221
207
192
-12
-216
-105
6
197
388
382
376
380
385
395
405
-411
-1227
-1194
-1161
-300
561
687
813
747
681
522
363
351
339
169
0
240
479
633
787
472
156
368
580
245
-90
297
684
865
1047
1096
1144
991
839
698
556
543
529
751
974
1230
1485
1503
1521
1004
486
1172
1858
1144
431
793
1156
1135
1114
1425
1737
1733
1728
1117
505
808
1112
1436
1760
1696
1633
1825
2017
1793
1570
1159
749
639
530
916
1302
1483
1665
1683
1702
1412
1122
788
454
518
581
513
446
469
492
348
204
143
81
-191
-463
-621
-778
-358
62
-125
-312
-158
-4
54
111
-329
-769
-994
-1220
-719
-218
-265
-311
-122
67
-630
-1327
-1298
-1270
-1169
-1067
-706
-345
-336
-327
-244
-162
-549
-935
-1100
-1265
-1103
-942
-664
-387
-311
-234
-185
-136
-179
-222
-743
-1264
-1086
-908
-787
-665
-554
-443
-192
59
-184
-427
-800
-1173
-1026
-879
-979
-1080
-554
-28
25
79
-215
-509
-837
-1164
-941
-718
-751
-785
-850
-915
-405
105
-513
-1130
-837
-543
-358
-173
-784
-1394
-542
310
323
337
163
-12
-569
-1126
-598
-70
-231
-392
-173
46
39
33
-207
-447
-347
-246
-672
-1098
-913
-729
-196
337
256
174
54
-66
-417
-768
-541
-314
136
586
464
342
205
68
-22
-113
-92
-71
-102
-134
253
639
695
752
637
523
183
-157
143
443
301
159
-123
-406
-296
-186
-236
-285
-25
234
213
192
-236
-663
-175
313
74
-165
-71
24
-181
-385
-480
-575
-524
-474
-209
56
251
446
326
205
1
-203
-555
-908
-735
-562
-275
11
291
571
520
468
118
-231
-180
-129
-249
-370
349
1069
1059
1048
1267
1485
1333
1180
1343
1505
1375
1245
1472
1700
950
201
126
50
-213
-476
-1047
-1617
-1421
-1224
-1234
-1244
-1019
-794
-631
-469
-695
-921
-699
-477
-505
-533
-93
346
304
261
216
171
102
33
-45
-123
84
291
222
152
452
752
754
756
342
-72
-68
-65
128
320
503
687
762
837
772
707
694
681
170
-341
85
511
432
354
643
931
938
945
125
-695
-502
-309
-33
243
395
547
758
969
974
979
570
162
168
174
362
550
927
1304
896
488
567
645
658
672
612
551
514
477
233
-10
699
1407
1288
1170
978
787
912
1037
773
508
939
1371
1419
1467
1297
1127
942
757
889
1020
935
851
1377
1903
2021
2139
1367
594
954
1314
1106
898
886
874
1275
1675
1733
1790
1780
1769
1406
1043
1129
1216
1194
1172
1586
2001
1070
139
1178
2215
1863
1510
961
412
838
1265
1324
1382
1316
1250
695
139
59
-22
159
340
557
774
553
332
244
155
-55
-266
-320
-373
-970
-1567
-1118
-670
-671
-672
-464
-255
-346
-438
-893
-1348
-1302
-1257
-1205
-1153
-767
-381
-727
-1073
-961
-850
-971
-1092
-1096
-1100
-1107
-1115
-983
-851
-942
-1033
-1103
-1173
-1244
-1315
-1116
-918
-1287
-1656
-1058
-461
-639
-817
-861
-904
-1085
-1266
-1658
-2050
-1508
-965
-834
-703
-821
-938
-1015
-1092
-1264
-1435
-1366
-1298
-1319
-1340
-1086
-831
-599
-367
-1236
-2105
-1815
-1526
-1310
-1094
-688
-283
-318
-353
-598
-842
-827
-812
-1207
-1603
-1558
-1513
-843
-173
-669
-1165
-1005
-846
-633
-420
-1203
-1987
-1853
-1719
-1424
-1128
-732
-337
-318
-298
-323
-348
-710
-1071
-1058
-1044
-899
-754
-693
-631
-600
-570
-778
-987
-824
-661
-357
-54
-606
-1158
-708
-259
-561
-863
-874
-886
-1044
-1203
-920
-637
-713
-790
-463
-135
-268
-401
-461
-522
-511
-500
-340
-180
-116
-52
-118
-185
-682
-1180
-1638
-2095
-1434
-773
-901
-1030
-810
-590
-509
-427
-546
-665
-1042
-1419
-1394
-1369
-1160
-951
-1157
-1362
-951
-540
-795
-1050
-1047
-1044
-874
-704
-973
-1241
-1034
-827
-667
-508
-661
-813
-905
-997
-1152
-1308
-1253
-1198
-716
-234
-280
-325
-682
-1040
-840
-640
-156
327
684
1042
1273
1503
1378
1254
464
-327
-667
-1007
-1404
-1801
-2031
-2260
-2617
-2973
-2489
-2005
-2298
-2591
-2441
-2292
-2654
-3016
-2242
-1467
-1255
-1042
-1022
-1002
-1006
-1010
-1241
-1472
-1334
-1195
-1093
-992
-980
-969
-754
-539
-865
-1192
-1036
-880
-1264
-1648
-1346
-1044
-1062
-1080
-1287
-1494
-1321
-1148
-1333
-1519
-1629
-1740
-1844
-1947
-1675
-1402
-1522
-1643
-1794
-1945
-2236
-2527
-2556
-2586
-2146
-1707
-1724
-1742
-2034
-2326
-2323
-2321
-2316
-2311
-2265
-2219
-2204
-2189
-1713
-1236
-1756
-2275
-2222
-2168
-2621
-3075
-2629
-2182
-2115
-2047
-1924
-1800
-1990
-2179
-2276
-2374
-2380
-2387
-2587
-2788
-2442
-2096
-1965
-1833
-1918
-2003
-2435
-2867
-2815
-2764
-2824
-2884
-2244
-1604
-1780
-1956
-2241
-2526
-2579
-2632
-2569
-2505
-2501
-2498
-2055
-1613
-1944
-2276
-1945
-1614
-1887
-2159
-2441
-2723
-2550
-2377
-2206
-2035
-1925
-1814
-1842
-1870
-2037
-2204
-2340
-2477
-2565
-2653
-2456
-2258
-2081
-1904
-2133
-2362
-2565
-2769
-3043
-3317
-3280
-3243
-3148
-3052
-3248
-3444
-3358
-3272
-3717
-4163
-4165
-4167
-3917
-3668
-3853
-4038
-4464
-4890
-4590
-4289
-4609
-4928
-4913
-4897
-5045
-5194
-5050
-4905
-4733
-4561
-4529
-4497
-4695
-4893
-5203
-5513
-5486
-5459
-5095
-4732
-4914
-5097
-5041
-4985
-5476
-5967
-5714
-5461
-5608
-5755
-5349
-4942
-4818
-4694
-5009
-5323
-5268
-5213
-5689
-6166
-5909
-5652
-5475
-5298
-5250
-5201
-5257
-5313
-5746
-6178
-5869
-5561
-5493
-5426
-5303
-5179
-5066
-4952
-5687
-6422
-5832
-5241
-5500
-5758
-5576
-5394
-5290
-5186
-5242
-5298
-5457
-5617
-5750
-5883
-5841
-5799
-5640
-5480
-5244
-5009
-5144
-5279
-5274
-5269
-5680
-6091
-5856
-5620
-5623
-5626
-5191
-4756
-5440
-6124
-5622
-5120
-5129
-5137
-5652
-6167
-5911
-5654
-5528
-5403
-5369
-5334
-5295
-5255
-5579
-5903
-5946
-5989
-5575
-5162
-5923
-6684
-6362
-6040
-5324
-4609
-5019
-5429
-5497
-5565
-5377
-5188
-5091
-4994
-4911
-4829
-4992
-5156
-5507
-5858
-5639
-5421
-5486
-5551
-5309
-5067
-4900
-4733
-5096
-5459
-5483
-5506
-5367
-5228
-5075
-4923
-4751
-4580
-4750
-4919
-4863
-4807
-5002
-5198
-5760
-6323
-5923
-5523
-5238
-4953
-4858
-4764
-4940
-5116
-5428
-5740
-5545
-5350
-5414
-5478
-5490
-5501
-5328
-5154
-5272
-5390
-5762
-6134
-6010
-5886
-5546
-5205
-5113
-5021
-5121
-5222
-5365
-5509
-5490
-5471
-5487
-5503
-5461
-5419
-5356
-5293
-5076
-4860
-5255
-5651
-5624
-5596
-5300
-5003
-4985
-4968
-4587
-4206
-4173
-4139
-3721
-3303
-3407
-3510
-3274
-3037
-3336
-3635
-4100
-4566
-5053
-5540
-5799
-6059
-6433
-6807
-7309
-7811
-7626
-7441
-6598
-5754
-5778
-5802
-6059
-6316
-6030
-5744
-5402
-5060
-4907
-4755
-4573
-4392
-4456
-4520
-4882
-5245
-5185
-5125
-5188
-5251
-4876
-4500
-4739
-4978
-4986
-4994
-4777
-4560
-4623
-4685
-5060
-5434
-5112
-4791
-4093
-3396
-3541
-3685
-4214
-4743
-4818
-4892
-4520
-4148
-4587
-5025
-4779
-4532
-4472
-4412
-4471
-4529
-4512
-4495
-4267
-4039
-4037
-4036
-3945
-3854
-3942
-4030
-4173
-4315
-4400
-4485
-4314
-4143
-4002
-3860
-3718
-3576
-3721
-3865
-4308
-4751
-4301
-3851
-3825
-3800
-3637
-3475
-3466
-3457
-3471
-3485
-4022
-4559
-4489
-4418
-3921
-3424
-3193
-2962
-3437
-3912
-3801
-3690
-3877
-4064
-3842
-3620
-3324
-3027
-3057
-3087
-3139
-3192
-3445
-3699
-3262
-2825
-3105
-3384
-2973
-2561
-2699
-2836
-3051
-3266
-2783
-2299
-2808
-3317
-3114
-2910
-3078
-3246
-2983
-2720
-2630
-2540
-2693
-2846
-2714
-2582
-2952
-3321
-3467
-3613
-3329
-3044
-2814
-2584
-2851
-3117
-3393
-3670
-3712
-3754
-3568
-3381
-3364
-3348
-3485
-3622
-3887
-4153
-4180
-4207
-4224
-4241
-3936
-3630
-3373
-3115
-3296
-3476
-4406
-5337
-4937
-4536
-4484
-4432
-4331
-4229
-3821
-3413
-3606
-3800
-4130
-4459
-4186
-3914
-4278
-4642
-4317
-3993
-4061
-4130
-3750
-3371
-3687
-4002
-4056
-4111
-4035
-3959
-4251
-4542
-4519
-4495
-3698
-2901
-3317
-3734
-3962
-4190
-4138
-4087
-3706
-3324
-3220
-3117
-3279
-3440
-4020
-4599
-4335
-4072
-3902
-3732
-3437
-3142
-2908
-2675
-2745
-2815
-3071
-3326
-3296
-3267
-3385
-3502
-3292
-3082
-3430
-3779
-3070
-2362
-2735
-3108
-3231
-3355
-3237
-3118
-2725
-2332
-2652
-2971
-2712
-2454
-2688
-2922
-2939
-2955
-2917
-2880
-2799
-2717
-2434
-2151
-1762
-1374
-2572
-3769
-3198
-2628
-2773
-2918
-2814
-2711
-2534
-2357
-2284
-2210
-2545
-2879
-3190
-3501
-3384
-3267
-2762
-2256
-2275
-2294
-2340
-2386
-2527
-2668
-2716
-2765
-2738
-2711
-2490
-2269
-2164
-2060
-2086
-2111
-2126
-2141
-2095
-2050
-2512
-2973
-2365
-1757
-2186
-2615
-2368
-2121
-2097
-2072
-2177
-2283
-2323
-2362
-2570
-2778
-2207
-1636
-1981
-2326
-2181
-2036
-1580
-1125
-1704
-2282
-2254
-2226
-1442
-658
-1052
-1445
-1432
-1418
-1499
-1580
-1407
-1233
-1263
-1292
-960
-627
-824
-1020
-1361
-1701
-1917
-2133
-1914
-1695
-1437
-1178
-1261
-1344
-1408
-1471
-1736
-2001
-2047
-2092
-1883
-1675
-1508
-1342
-1491
-1640
-1639
-1638
-1685
-1732
-1617
-1502
-1680
-1857
-2302
-2748
-1712
-678
-1130
-1582
-1632
-1682
-1484
-1286
-1377
-1469
-1124
-780
-756
-731
-719
-707
-1837
-2966
-2576
-2187
-1123
-58
431
921
1185
1449
1155
862
812
762
181
-401
-506
-611
-973
-1335
-1439
-1542
-1349
-1155
-2819
-4483
-3303
-2123
-1884
-1645
-1434
-1223
-1153
-1084
-916
-748
-837
-926
-893
-860
-710
-560
-392
-225
-128
-30
-317
-604
-745
-885
-1905
-2925
-1307
311
442
574
374
174
14
-145
-365
-585
-549
-514
-409
-305
36
378
-25
-428
-1097
-1766
-661
445
-118
-682
-347
-11
-47
-83
133
348
279
211
61
-90
-418
-746
-165
417
653
890
491
92
4
-84
-329
-573
85
742
667
592
779
965
877
790
605
420
341
262
525
788
719
651
752
854
773
692
-256
-1203
-181
840
653
466
726
986
1111
1237
1238
1238
1095
953
1002
1051
848
645
459
273
-158
-589
547
1684
1469
1255
1075
896
904
912
1065
1217
1388
1559
1457
1355
1280
1206
932
657
616
575
811
1047
1348
1650
1931
2211
1849
1487
937
388
667
945
1104
1264
1024
784
992
1200
272
-657
-562
-467
-539
-611
-142
327
346
365
411
458
16
-425
-575
-724
-543
-362
-162
39
217
394
279
163
-207
-577
-585
-594
-598
-603
-249
105
97
88
-75
-239
-229
-219
-394
-569
-528
-488
-294
-100
-220
-340
-361
-381
-700
-1019
-851
-684
-621
-559
-252
56
46
37
-126
-288
-505
-723
-860
-997
-913
-828
-542
-256
85
426
165
-96
-225
-354
-351
-349
-308
-267
-262
-257
-234
-210
-442
-675
-692
-709
-525
-341
-399
-456
-82
291
-99
-489
-209
71
-80
-232
-610
-988
-429
129
135
142
307
473
41
-391
-77
236
-6
-249
-294
-339
32
403
389
375
58
-259
-8
243
-81
-404
-144
116
169
222
375
528
525
523
159
-204
-93
19
230
441
555
669
258
-153
335
822
462
102
-326
-753
-32
689
366
42
176
310
207
105
-82
-270
-206
-143
-36
71
301
530
533
536
422
307
-140
-587
-219
149
111
73
278
482
667
852
527
202
-16
-234
104
443
243
44
130
216
463
711
631
550
301
52
18
-16
-460
-904
252
1410
1170
930
880
830
832
833
696
559
633
706
770
833
1048
1263
1001
738
551
364
335
307
569
831
690
549
663
777
681
584
317
49
113
177
251
324
652
979
667
354
226
98
211
324
210
96
305
514
574
635
733
831
335
-161
-69
23
11
-2
286
573
853
1133
933
732
586
440
436
432
550
669
686
704
877
1051
1605
2159
2195
2231
2198
2165
2346
2527
2606
2685
2135
1585
641
-305
-468
-632
-728
-824
-1239
-1653
-1308
-964
-790
-616
-467
-318
-632
-945
-514
-82
-373
-664
415
1492
1242
992
859
725
777
829
448
67
388
710
837
964
1071
1178
1074
971
856
741
729
718
665
612
635
659
898
1136
854
571
799
1027
917
808
670
533
997
1462
1501
1539
1545
1552
1153
755
642
528
650
772
1084
1396
1256
1115
1302
1490
1061
632
863
1093
1059
1025
1003
980
1531
2082
1641
1201
1181
1161
866
570
904
1237
1386
1535
1687
1839
1870
1902
1456
1010
992
974
1215
1456
1822
2189
2140
2092
1621
1151
1271
1391
1431
1472
1711
1950
1511
1072
1418
1765
1963
2162
1605
1048
1299
1549
1542
1535
1654
1774
1874
1974
1946
1919
1844
1768
1598
1427
1873
2319
2588
2857
2215
1572
1549
1526
1201
875
1109
1342
1469
1596
1764
1931
1824
1717
1331
944
919
894
698
501
624
748
1027
1306
767
228
-26
-280
-314
-347
-288
-230
-489
-747
-479
-210
-46
118
-184
-486
-575
-664
-654
-643
-489
-335
-327
-320
-181
-42
-141
-241
-746
-1251
-959
-666
-607
-547
-728
-909
-624
-339
-615
-891
-932
-973
-1115
-1257
-716
-174
-289
-403
-259
-114
-211
-308
-250
-193
-562
-930
-755
-581
-745
-908
-577
-246
-210
-173
-439
-705
-830
-956
-426
103
156
209
-100
-409
-470
-530
-824
-1117
-635
-152
-81
-9
106
221
26
-168
-378
-587
-788
-989
-895
-801
-352
96
-95
-286
-24
239
32
-174
-340
-505
-501
-498
-211
77
421
765
215
-334
-108
119
122
125
-169
-463
-166
132
216
301
111
-80
-25
30
59
89
-299
-687
-265
157
151
144
260
376
181
-15
-18
-21
-15
-10
26
63
231
399
316
233
88
-58
-99
-140
-60
20
-27
-75
48
171
301
430
345
259
-239
-737
-123
492
533
574
759
945
536
127
467
807
463
120
-183
-486
-60
367
589
811
466
122
66
10
218
426
293
161
449
737
650
563
568
573
316
59
-53
-165
162
490
566
643
764
884
610
337
167
-3
-82
-161
65
292
768
1244
1195
1146
1045
943
729
515
284
52
318
583
741
898
1076
1254
1170
1086
707
328
231
133
342
551
539
526
713
899
387
-125
47
219
227
235
265
296
159
22
632
1241
1036
830
597
364
511
657
522
388
364
339
473
607
224
-158
129
417
424
431
459
488
718
948
894
841
854
868
368
-132
273
677
782
888
1896
2906
2829
2752
2703
2655
2327
1999
1351
703
455
206
165
123
-98
-319
-587
-855
-949
-1042
-1068
-1093
-821
-549
-312
-74
175
424
300
176
145
114
159
204
332
460
775
1090
1316
1542
951
360
573
787
810
832
791
751
1019
1287
1356
1424
1322
1221
586
-49
347
744
1072
1400
1309
1218
1101
984
775
565
648
730
782
834
894
954
982
1010
1252
1494
1183
872
706
540
703
867
863
859
1365
1871
1666
1461
1357
1254
1020
786
889
992
1202
1411
1521
1632
1384
1136
992
848
897
947
988
1028
1200
1371
1408
1445
1703
1961
1647
1332
992
652
1147
1642
1601
1561
1702
1843
1774
1705
1485
1266
1073
879
1146
1413
1460
1507
1666
1825
1779
1733
1753
1773
1368
964
1188
1411
1610
1809
1771
1732
1763
1793
1770
1748
1645
1541
1648
1756
1643
1531
1596
1662
1695
1728
1726
1723
1099
475
849
1222
1271
1320
1455
1590
1262
935
851
768
498
229
52
-126
165
456
458
460
437
413
101
-211
-392
-572
-791
-1010
-661
-312
-333
-355
-383
-412
-599
-786
-971
-1156
-852
-548
-519
-490
-619
-748
-672
-596
-644
-691
-618
-545
-959
-1372
-1043
-714
-533
-352
-438
-523
-661
-799
-822
-845
-877
-909
-612
-314
-383
-453
-375
-297
-568
-838
-925
-1011
-886
-761
-460
-158
-283
-408
-528
-648
-795
-942
-891
-840
-774
-707
-553
-400
-287
-175
-447
-720
-591
-463
-949
-1435
-1374
-1312
-552
208
-92
-393
-389
-386
-438
-490
-569
-647
-471
-295
-19
256
25
-206
-467
-728
-823
-919
-514
-109
-292
-476
-126
223
17
-189
-143
-98
-115
-132
-408
-684
-663
-642
-356
-70
-55
-40
-161
-282
-406
-530
-613
-695
-403
-110
-2
106
114
123
-242
-608
-587
-566
-756
-946
-701
-457
-245
-34
-130
-227
-317
-408
-272
-136
-220
-303
-201
-98
-95
-93
-251
-409
-158
94
-837
-1768
-525
719
491
263
348
434
217
-1
13
27
-44
-115
-2
112
312
511
466
421
393
366
147
-72
-381
-690
-564
-438
-712
-985
-408
168
-49
-267
-504
-740
-567
-395
-499
-603
-522
-440
-432
-424
-228
-33
-243
-452
-393
-333
-860
-1386
-1132
-879
-269
341
-76
-493
-500
-507
-468
-429
-506
-583
-434
-285
-54
176
-34
-245
-413
-581
-452
-322
-425
-528
-328
-128
333
793
1037
1280
1254
1228
1056
885
393
-100
163
427
42
-344
-1001
-1657
-1772
-1888
-1962
-2035
-1703
-1371
-1221
-1072
-1139
-1206
-1056
-905
-895
-886
-1222
-1559
-1085
-610
-791
-972
-444
84
197
310
161
12
-255
-523
-428
-332
-2
328
325
322
283
243
-99
-441
-443
-445
-354
-262
105
472
116
-240
-52
136
-48
-233
-239
-245
-134
-24
283
590
364
139
286
434
358
281
-727
-1736
-1165
-593
79
752
918
1083
790
497
108
-280
-416
-552
-297
-42
458
957
757
556
131
-293
-55
182
-81
-344
-165
14
335
655
855
1055
819
583
228
-128
-4
120
404
688
715
741
868
995
573
152
-172
-496
-249
-2
443
889
721
554
825
1096
1135
1173
753
332
365
397
944
1490
779
68
-344
-757
184
1124
760
397
525
653
1021
1388
1719
2049
1421
793
789
785
786
787
596
405
467
529
731
934
363
-209
-100
9
-27
-64
-129
-194
-183
-171
-17
137
-86
-309
-590
-872
-1067
-1263
-1230
-1198
-954
-710
-1369
-2027
-1493
-958
-1319
-1680
-1779
-1878
-1751
-1623
-1394
-1166
-1125
-1084
-1199
-1313
-1724
-2135
-1660
-1185
-2120
-3055
-2154
-1254
-977
-700
-738
-775
-1402
-2029
-1983
-1938
-2035
-2132
-1464
-796
-964
-1132
-1114
-1095
-1305
-1516
-1936
-2357
-2674
-2990
-2415
-1839
-1755
-1671
-1508
-1345
-1753
-2160
-1729
-1298
-1523
-1749
-1721
-1692
-1496
-1301
-1218
-1136
-1361
-1586
-1764
-1941
-1810
-1678
-1647
-1616
-1268
-920
-866
-813
-1554
-2295
-2318
-2340
-1791
-1243
-1324
-1404
-1184
-964
-1123
-1282
-1426
-1570
-1190
-811
-824
-837
-1045
-1254
-1210
-1167
-1074
-982
-1508
-2034
-1629
-1224
-1350
-1476
-1111
-746
-878
-1010
-1175
-1341
-1407
-1473
-1404
-1336
-1375
-1415
-1387
-1358
-913
-467
-837
-1207
-1316
-1424
-1219
-1013
-972
-930
-1150
-1370
-1123
-876
-790
-704
-1188
-1673
-1498
-1324
-1372
-1420
-904
-388
-67
254
-200
-654
-646
-638
-1071
-1503
-1838
-2174
-1142
-110
205
521
-79
-680
-748
-815
-724
-633
-1328
-2023
-1240
-456
-484
-512
-702
-891
-1029
-1166
-1141
-1115
-995
-874
-843
-813
-894
-975
-1038
-1100
-1317
-1534
-1491
-1448
-1242
-1036
-895
-754
-770
-786
-439
-93
-1156
-2218
-2509
-2799
-1887
-977
-670
-362
-427
-492
-593
-695
-873
-1052
-946
-841
-606
-372
-38
296
-280
-855
93
1041
920
799
897
996
1334
1672
1178
685
119
-447
-690
-933
-1340
-1747
-2034
-2322
-2264
-2207
-2116
-2024
-1659
-1293
-1525
-1757
-1817
-1877
-1643
-1410
-1365
-1320
-576
168
-56
-279
-387
-496
-998
-1500
-870
-240
-47
146
-150
-447
-31
385
-61
-508
-735
-962
-649
-335
-197
-59
232
522
269
15
5
-5
-213
-421
-312
-204
-197
-190
19
228
229
230
107
-15
-59
-103
97
297
519
741
48
-646
-76
494
34
-426
-127
171
-14
-199
151
501
567
633
456
280
-144
-567
-365
-162
85
332
624
916
611
306
477
649
302
-45
58
161
144
128
110
93
402
711
707
704
727
751
268
-216
119
455
802
1148
834
520
224
-72
426
924
673
422
553
684
753
823
1088
1352
1235
1118
850
582
457
332
406
479
644
810
729
648
975
1302
830
359
208
57
288
520
510
501
321
142
544
946
337
-272
-627
-983
-344
295
256
218
-99
-416
-413
-411
-611
-811
-1309
-1806
-1138
-470
-489
-508
-423
-339
-822
-1304
-1561
-1818
-1739
-1660
-1497
-1335
-1143
-952
-919
-886
-1132
-1378
-1191
-1003
-1393
-1782
-1957
-2133
-1631
-1128
-1085
-1043
-1087
-1130
-1400
-1669
-1806
-1943
-1823
-1703
-1388
-1073
-1340
-1608
-1440
-1271
-1320
-1368
-1422
-1477
-1382
-1286
-1141
-996
-956
-916
-975
-1034
-1640
-2247
-1807
-1368
-1370
-1371
-1001
-630
-531
-432
-630
-828
-1294
-1760
-1731
-1701
-1521
-1341
-1081
-821
-606
-391
-566
-742
-1269
-1795
-1513
-1231
-1172
-1113
-822
-530
-602
-674
-764
-854
-768
-683
-735
-788
-1094
-1401
-987
-573
-325
-77
-606
-1135
-932
-728
-969
-1211
-923
-636
-756
-876
-612
-349
-311
-273
-841
-1408
-1227
-1046
-831
-616
-766
-917
-725
-533
-695
-857
-694
-532
-784
-1036
-898
-760
-499
-237
-138
-39
-429
-818
-1465
-2111
-1166
-221
-531
-841
-696
-552
-88
376
-159
-695
-385
-74
-406
-739
-523
-308
-122
64
189
314
-218
-750
-913
-1075
-905
-734
-487
-240
-109
22
-282
-586
-445
-303
-559
-816
-849
-881
-520
-158
12
183
155
126
-312
-749
-657
-564
-389
-213
-162
-111
29
169
411
653
401
148
152
157
-43
-243
-160
-77
234
546
135
-276
-134
8
-445
-898
-817
-735
-295
145
55
-35
-93
-151
-179
-208
-862
-1516
-883
-250
-195
-140
-54
32
57
82
-435
-951
-670
-388
-135
119
-599
-1317
-896
-476
-54
368
173
-22
-110
-197
-231
-266
56
378
551
725
826
927
791
655
848
1042
1333
1624
1937
2249
2062
1876
1556
1237
344
-551
-812
-1072
-1254
-1436
-1323
-1209
-1224
-1239
-1516
-1792
-1581
-1370
-1382
-1394
-896
-397
-306
-214
-11
192
-448
-1088
-800
-512
-361
-211
139
489
645
801
804
807
770
733
235
-262
-295
-329
-282
-235
346
926
746
565
660
755
125
-505
-114
278
528
777
960
1144
1020
896
415
-65
82
229
236
243
438
633
510
387
774
1161
982
803
414
25
-67
-158
522
1202
939
676
607
537
734
932
722
511
459
406
567
728
923
1118
1331
1545
1259
972
791
610
406
202
747
1293
1279
1264
1247
1231
1055
880
786
692
664
636
865
1094
1004
915
1285
1656
1208
759
1190
1621
1134
648
1079
1511
1507
1502
1250
998
1076
1154
1135
1115
1144
1173
1452
1731
1328
925
1173
1421
1444
1466
1190
914
1069
1224
1183
1141
1022
902
1269
1636
1273
910
735
561
381
201
281
360
493
627
430
234
154
74
-242
-558
-570
-582
-324
-66
-236
-407
-433
-458
-422
-386
-1371
-2356
-1489
-621
-610
-599
-413
-228
-323
-418
-417
-416
-894
-1371
-1499
-1627
-1524
-1421
-805
-188
-224
-259
-615
-972
-1152
-1332
-1268
-1204
-1145
-1086
-1071
-1055
-586
-117
-516
-915
-1097
-1278
-1255
-1233
-958
-683
-936
-1189
-905
-621
-575
-529
-716
-904
-1067
-1231
-941
-652
-262
128
-623
-1375
-1985
-2595
-1820
-1045
-1041
-1036
-795
-554
-652
-751
-666
-580
-780
-979
-1368
-1757
-1291
-824
-518
-213
-368
-523
-494
-465
-971
-1478
-921
-364
-569
-775
-851
-928
-431
66
-89
-244
-825
-1407
-1052
-698
-631
-565
-526
-486
-506
-526
-279
-32
-27
-21
-686
-1350
-840
-331
-362
-392
48
488
-512
-1512
-634
244
-228
-701
-511
-321
-182
-43
311
665
-62
-788
-773
-759
-728
-698
-301
96
-425
-947
-258
431
293
156
-101
-358
-423
-489
-342
-195
6
207
197
186
-175
-537
-264
9
-125
-259
-140
-21
59
139
-45
-228
49
326
124
-77
-457
-837
-304
229
200
171
258
346
254
161
36
-88
-76
-63
-235
-406
-46
314
459
603
388
173
-69
-312
-260
-207
79
365
525
685
488
290
392
494
131
-232
-117
-3
390
784
666
547
785
1022
577
132
1
-130
62
254
464
673
758
843
910
978
968
959
615
271
193
116
481
845
856
867
597
328
423
517
216
-85
-1
83
233
383
591
800
807
814
822
829
393
-44
142
328
8
-313
38
389
589
788
600
411
326
242
417
592
569
547
690
833
1041
1250
790
330
292
255
214
172
517
862
1118
1374
1189
1004
1207
1411
1626
1841
2143
2446
2570
2694
2862
3029
2832
2635
2620
2606
1738
871
869
867
617
367
13
-340
-269
-199
-312
-425
-470
-515
-720
-924
-448
29
540
1050
1119
1188
920
652
814
975
1041
1108
1243
1377
1610
1842
1711
1579
1519
1458
975
492
1014
1536
1590
1645
1598
1551
1562
1573
1555
1537
1232
926
1215
1504
1595
1687
1588
1490
1435
1380
1642
1904
1658
1412
1478
1543
1260
977
1442
1908
1962
2016
1820
1624
1143
662
1070
1479
1588
1697
2060
2423
2329
2235
2124
2013
1705
1396
1550
1704
1968
2231
2125
2019
2281
2544
2347
2151
2018
1886
1781
1677
1796
1915
2191
2466
2160
1853
1835
1816
2014
2212
2064
1917
2442
2967
2862
2756
2071
1386
1583
1780
1924
2068
1584
1100
1919
2737
3330
3923
3011
2099
2545
2992
2546
2100
2407
2714
2842
2971
3162
3353
3260
3167
3080
2993
2752
2512
2283
2055
2368
2681
2791
2900
2682
2463
2494
2525
2479
2433
2455
2476
2299
2123
2163
2203
2105
2008
1798
1588
1128
668
1237
1807
1631
1455
1517
1579
1502
1424
1325
1227
336
-553
284
1120
747
374
848
1322
1027
731
616
501
550
600
577
553
738
923
900
878
673
468
469
470
84
-303
200
704
829
954
801
649
686
722
170
-382
-185
12
303
594
560
525
801
1077
1028
979
269
-442
-22
398
322
246
446
646
459
272
511
750
-111
-973
-112
749
427
105
656
1206
1144
1082
813
545
314
84
-8
-100
189
478
577
676
563
450
434
418
480
542
568
594
703
811
894
976
967
958
670
382
462
542
418
295
365
435
931
1427
1260
1094
303
-489
238
965
853
741
1035
1329
966
604
896
1188
1117
1046
813
580
542
505
955
1405
1376
1346
1287
1228
1290
1352
1172
993
1106
1219
1099
979
1052
1125
1326
1527
1235
943
933
924
933
942
1184
1426
1651
1875
1744
1613
1376
1139
1147
1155
1160
1165
1013
862
1129
1397
1808
2220
1741
1262
1499
1736
1773
1810
1545
1281
1746
2212
2013
1814
1773
1731
1710
1688
1488
1288
1448
1608
1728
1848
1793
1737
1469
1201
981
762
632
502
798
1095
1549
2004
1646
1289
1315
1340
1312
1283
1086
888
784
680
1176
1673
1929
2186
1320
454
846
1238
1352
1466
1541
1615
1743
1870
1573
1275
1173
1070
1270
1470
1298
1127
1603
2079
2204
2330
2105
1881
1946
2010
2215
2420
2691
2963
3236
3509
3674
3839
2966
2093
1467
841
880
920
648
377
145
-87
180
448
560
672
514
357
218
80
678
1276
1279
1282
1352
1422
1577
1732
1495
1257
1319
1381
1748
2115
2170
2224
2093
1962
2063
2165
1983
1802
1429
1057
1492
1926
2240
2554
2436
2318
1902
1486
1452
1417
1571
1725
2071
2417
2435
2453
2394
2334
2255
2175
1709
1242
1596
1950
1978
2006
2108
2210
2353
2495
2205
1915
1843
1771
1983
2196
2288
2380
2382
2384
2382
2380
2388
2396
2140
1885
1338
791
1093
1395
2164
2934
2857
2780
2289
1798
1719
1640
1937
2235
2413
2590
2375
2160
2446
2732
2465
2197
2187
2178
2105
2033
2310
2587
2735
2884
2887
2889
2772
2655
2544
2433
1821
1209
2038
2866
3108
3351
3064
2776
2623
2471
2510
2549
2471
2393
3089
3785
3630
3475
3340
3204
3040
2876
2646
2415
2559
2703
2844
2985
3143
3302
2929
2557
2578
2599
2497
2395
2119
1844
2436
3028
2743
2458
2465
2471
2000
1530
1191
853
702
552
962
1372
1321
1269
1236
1203
1189
1174
667
161
407
653
649
644
677
709
91
-526
44
614
457
300
116
-68
524
1116
768
419
359
299
164
30
-204
-437
-143
150
529
909
605
302
380
458
660
862
24
-813
-486
-160
200
560
597
634
259
-117
141
399
-91
-581
-110
361
604
847
291
-264
-488
-712
-486
-260
4
269
298
327
579
832
945
1059
681
304
-90
-483
-473
-463
-295
-126
106
338
121
-96
29
155
278
401
128
-145
-73
-1
536
1072
732
392
196
1
-48
-96
-13
69
213
357
412
467
535
602
715
829
516
203
-74
-351
67
485
981
1478
976
473
333
192
181
170
-161
-492
66
624
666
708
540
371
221
72
376
681
283
-114
179
471
658
844
642
440
653
866
699
532
121
-291
130
552
801
1050
859
669
644
619
530
441
607
772
1061
1349
969
590
752
914
799
685
622
559
190
-180
72
324
667
1010
1138
1267
835
403
82
-239
38
315
620
926
781
636
302
-32
148
328
155
-17
-117
-216
-2
212
601
989
830
671
580
489
-108
-704
-107
489
528
566
845
1123
645
167
448
730
527
324
555
786
1132
1478
1366
1255
1592
1929
2291
2654
2059
1463
1573
1684
1676
1667
1144
621
381
141
-100
-340
-863
-1386
-1161
-936
-834
-733
-617
-501
-147
206
-17
-241
-156
-71
304
679
945
1212
1185
1158
1044
931
606
282
256
230
396
562
652
743
964
1185
1176
1167
921
676
776
875
871
867
1054
1242
1082
922
872
822
759
697
723
749
904
1058
1049
1040
1243
1447
1273
1099
982
865
725
585
627
668
893
1117
1154
1191
1222
1252
1082
911
982
1053
1167
1281
1102
923
1166
1409
1492
1575
1362
1148
976
804
843
883
1218
1554
1527
1499
1589
1679
1329
979
884
788
1152
1516
1643
1769
1680
1591
1698
1806
1915
2025
1280
535
900
1264
1468
1672
1898
2124
2043
1962
1676
1389
1196
1002
1306
1610
1896
2182
2263
2344
2348
2353
2031
1709
1703
1698
1860
2022
1998
1973
1989
2005
1761
1518
1666
1813
1739
1665
1816
1967
1932
1898
1652
1407
1119
831
971
1111
452
-206
2
211
540
869
785
702
824
946
87
-773
-718
-663
-362
-61
238
537
435
332
114
-104
-614
-1123
-797
-471
-460
-449
-277
-105
42
188
-14
-215
-614
-1013
-715
-417
-503
-590
-178
233
-230
-694
-846
-997
-1048
-1099
-1208
-1317
-952
-586
-759
-933
-671
-408
-331
-254
-902
-1549
-1394
-1240
-1288
-1335
-599
137
-317
-771
-798
-826
-1000
-1174
-1145
-1116
-995
-874
-603
-331
-729
-1127
-896
-665
-828
-991
-1089
-1188
-1021
-854
-545
-237
-439
-641
-784
-926
-1103
-1280
-1241
-1203
-979
-756
-646
-536
-785
-1034
-859
-684
-1218
-1753
-1860
-1967
-1720
-1474
-587
301
274
247
-704
-1656
-1483
-1309
-830
-352
-500
-648
-416
-183
-251
-319
-749
-1179
-1164
-1148
-934
-719
-856
-993
-688
-384
-602
-821
-991
-1160
-1112
-1065
-986
-907
-503
-99
-361
-622
-668
-715
-888
-1062
-1158
-1255
-1190
-1125
-1126
-1126
-1203
-1280
-1132
-984
-832
-681
-869
-1057
-755
-453
-928
-1404
-826
-249
-401
-552
-699
-845
-898
-951
-890
-830
-729
-628
-743
-859
-700
-540
-712
-884
-1055
-1225
-1008
-792
-565
-338
-292
-246
-353
-461
-610
-759
-822
-885
-851
-816
-613
-411
-399
-388
-698
-1008
-994
-981
-875
-769
-1083
-1397
-993
-588
-878
-1168
-1477
-1786
-1224
-662
-1146
-1631
-1310
-990
-968
-947
-767
-587
-705
-823
-1082
-1341
-1387
-1432
-1070
-707
-684
-662
-693
-724
-794
-865
-1000
-1136
-1527
-1918
-1322
-726
-587
-448
-621
-795
-939
-1083
-1170
-1257
-1036
-816
-783
-751
-464
-177
291
759
1094
1429
1324
1219
149
-921
-796
-672
-587
-502
-981
-1459
-2009
-2559
-2562
-2564
-2969
-3373
-2839
-2304
-1764
-1225
-1405
-1584
-1709
-1834
-1512
-1189
-1361
-1533
-1229
-925
-772
-620
-727
-834
-910
-986
-1170
-1353
-1329
-1304
-1109
-913
-803
-693
-802
-911
-998
-1085
-1320
-1556
-1388
-1219
-1315
-1411
-1012
-613
-646
-679
-1093
-1507
-1484
-1462
-1245
-1027
-1316
-1605
-1095
-585
-751
-916
-997
-1078
-1226
-1373
-1114
-855
-1400
-1945
-1087
-229
-132
-34
-546
-1058
-1459
-1860
-1559
-1258
-1223
-1188
-1085
-983
-878
-774
-958
-1142
-1321
-1501
-1555
-1610
-1155
-699
-663
-626
-803
-980
-1017
-1054
-1108
-1162
-1238
-1315
-1396
-1478
-1490
-1503
-1115
-727
-728
-729
-1158
-1586
-1306
-1027
-919
-811
-929
-1047
-1014
-981
-957
-933
-1068
-1203
-1053
-902
-867
-832
-553
-275
-537
-799
-871
-943
-1177
-1411
-1458
-1506
-995
-483
-594
-705
-771
-838
-1216
-1593
-1684
-1775
-1669
-1562
-1134
-706
-961
-1216
-1551
-1885
-1839
-1793
-2694
-3594
-3475
-3357
-2763
-2169
-2225
-2281
-2307
-2333
-2463
-2592
-2928
-3265
-3282
-3300
-3196
-3093
-3236
-3379
-3270
-3162
-3131
-3101
-3305
-3509
-3588
-3667
-3532
-3398
-3254
-3109
-3371
-3633
-3935
-4236
-3944
-3651
-3655
-3660
-3622
-3585
-3718
-3851
-3643
-3434
-3749
-4065
-3949
-3832
-3711
-3590
-3563
-3537
-3443
-3350
-3253
-3156
-3385
-3614
-4123
-4632
-4444
-4256
-4116
-3976
-3665
-3355
-3367
-3379
-3470
-3562
-3917
-4271
-3886
-3500
-3464
-3429
-3581
-3733
-4024
-4316
-4035
-3754
-3851
-3949
-3849
-3748
-3740
-3732
-3609
-3485
-3651
-3817
-4203
-4590
-4181
-3773
-3777
-3780
-3719
-3657
-3562
-3468
-3350
-3233
-3684
-4134
-3873
-3612
-3694
-3776
-3786
-3796
-3893
-3990
-3905
-3819
-3734
-3648
-3776
-3903
-3626
-3348
-3349
-3350
-3532
-3715
-3572
-3428
-3883
-4338
-4192
-4046
-3940
-3834
-3449
-3065
-2979
-2893
-3345
-3798
-3999
-4201
-4427
-4654
-3993
-3331
-3368
-3405
-3124
-2842
-3267
-3691
-4210
-4728
-4063
-3398
-3294
-3191
-3307
-3423
-3174
-2925
-3031
-3138
-3767
-4395
-4119
-3843
-3843
-3843
-3338
-2833
-2986
-3139
-3001
-2862
-2760
-2657
-3412
-4167
-3630
-3094
-2728
-2363
-2857
-3351
-3578
-3806
-3556
-3307
-3432
-3556
-3173
-2791
-2808
-2825
-2798
-2772
-2966
-3159
-3258
-3357
-3473
-3589
-3319
-3050
-2822
-2594
-2354
-2115
-2377
-2639
-2792
-2944
-3226
-3508
-2738
-1967
-2388
-2810
-2462
-2115
-2604
-3093
-3047
-3002
-3036
-3071
-2986
-2902
-2957
-3012
-2735
-2457
-2424
-2391
-3188
-3985
-3436
-2887
-2612
-2338
-2398
-2459
-2434
-2409
-2566
-2723
-2821
-2919
-2764
-2609
-2478
-2347
-2303
-2258
-2242
-2226
-2481
-2737
-2706
-2676
-2685
-2694
-2323
-1952
-1850
-1748
-2029
-2309
-2546
-2783
-2766
-2750
-2406
-2061
-1413
-765
-351
63
193
324
-1090
-2503
-1437
-373
-970
-1567
-1205
-843
-1626
-2409
-2507
-2605
-2964
-3322
-3656
-3991
-3680
-3369
-3259
-3150
-2908
-2665
-2696
-2727
-2687
-2647
-2367
-2088
-2048
-2008
-1797
-1586
-1513
-1440
-1696
-1952
-1955
-1957
-1941
-1925
-1758
-1592
-1452
-1313
-1448
-1583
-1607
-1631
-1526
-1420
-2328
-3235
-2999
-2764
-1838
-912
-1067
-1221
-808
-396
-861
-1326
-1559
-1792
-1610
-1427
-1288
-1150
-1100
-1050
-1123
-1196
-1171
-1147
-1491
-1835
-1473
-1111
-877
-643
-878
-1113
-1131
-1149
-1233
-1316
-1344
-1373
-1161
-950
-812
-673
-639
-605
-768
-931
-1373
-1816
-1439
-1062
-824
-585
-1184
-1782
-1628
-1475
-1488
-1502
-906
-310
-524
-738
-899
-1060
-1042
-1024
-475
75
-122
-318
-500
-681
-642
-602
-567
-532
-205
122
155
189
-309
-806
-698
-590
-614
-639
-388
-137
41
219
-16
-251
-306
-361
-688
-1015
-724
-432
-375
-317
-172
-28
77
182
-87
-355
-343
-330
-1309
-2290
-2115
-1940
-1119
-298
-132
35
-344
-722
-766
-809
-967
-1125
-1164
-1204
-1091
-979
-1067
-1155
-1340
-1524
-1728
-1932
-1816
-1699
-1598
-1497
-1609
-1721
-1524
-1326
-1829
-2332
-2378
-2423
-2357
-2291
-2253
-2215
-2086
-1957
-1712
-1468
-1658
-1849
-2284
-2718
-2480
-2242
-2319
-2396
-1815
-1234
-1491
-1748
-1956
-2165
-2300
-2434
-2430
-2427
-1984
-1540
-1362
-1184
-1416
-1648
-1617
-1586
-1611
-1637
-1868
-2098
-1830
-1563
-1899
-2236
-1571
-906
-981
-1056
-1787
-2519
-2300
-2081
-1767
-1453
-1487
-1521
-1586
-1652
-1786
-1920
-2108
-2296
-1747
-1199
-1311
-1423
-1452
-1482
-1458
-1434
-1591
-1748
-2000
-2253
-2037
-1820
-1318
-817
-890
-962
-1198
-1434
-1339
-1244
-1660
-2077
-1897
-1716
-1436
-1157
-1000
-842
-894
-946
-929
-912
-1528
-2144
-2035
-1926
-1455
-983
-816
-649
-1001
-1353
-1540
-1727
-1680
-1632
-1461
-1290
-995
-700
-616
-533
-1050
-1567
-1321
-1075
-1255
-1436
-1787
-2138
-1226
-314
-180
-47
-514
-981
-1551
-2121
-1778
-1436
-1634
-1833
-1348
-862
-618
-373
-490
-607
-1136
-1665
-1728
-1790
-1556
-1322
-1066
-811
-683
-555
-560
-566
-706
-847
-1192
-1538
-1579
-1620
-1340
-1061
-764
-467
-704
-940
-1005
-1070
-1397
-1725
-1290
-855
-706
-557
-747
-937
-706
-475
-1287
-2100
-1504
-909
-1032
-1154
-991
-827
-603
-378
-286
-194
-567
-940
-956
-972
-857
-743
-808
-873
-723
-574
-598
-623
-955
-1288
-1266
-1245
-895
-544
-503
-462
-658
-854
-398
58
-386
-831
-797
-762
-878
-995
-678
-361
-41
278
-363
-1004
-812
-619
-672
-724
-778
-831
-787
-744
-687
-630
-827
-1025
-1072
-1119
-1377
-1636
-1346
-1056
-800
-545
-621
-697
-794
-892
-1473
-2054
-1574
-1094
-1141
-1189
-925
-661
-1137
-1613
-1358
-1103
-1378
-1653
-1503
-1354
-1312
-1269
-1432
-1595
-1497
-1399
-1280
-1161
-1493
-1826
-1861
-1895
-1278
-662
-887
-1111
-1008
-906
-685
-463
-42
380
-123
-626
-415
-204
-234
-263
-904
-1546
-2169
-2793
-2809
-2824
-2960
-3096
-3221
-3347
-3227
-3107
-2807
-2506
-2711
-2916
-2845
-2773
-2934
-3095
-2494
-1893
-2000
-2107
-2170
-2232
-2117
-2001
-2296
-2591
-2542
-2493
-2208
-1923
-1990
-2057
-2043
-2029
-2349
-2668
-2799
-2931
-2796
-2661
-2380
-2099
-2122
-2145
-2054
-1963
-2010
-2058
-2389
-2720
-3038
-3356
-3000
-2643
-2350
-2056
-2438
-2820
-2937
-3054
-2807
-2560
-2924
-3287
-3012
-2737
-2768
-2800
-2828
-2857
-2643
-2428
-2674
-2921
-2950
-2980
-2914
-2847
-2843
-2840
-2986
-3131
-2836
-2540
-2896
-3252
-3429
-3607
-3254
-2901
-2837
-2774
-2797
-2821
-3140
-3458
-3605
-3751
-3189
-2627
-2496
-2364
-2224
-2084
-2546
-3009
-2981
-2954
-3281
-3608
-3553
-3497
-2690
-1884
-2019
-2154
-2267
-2380
-2604
-2829
-2948
-3067
-2777
-2488
-2464
-2440
-2371
-2303
-2560
-2817
-2677
-2537
-2907
-3277
-3143
-3009
-2739
-2470
-2587
-2704
-2598
-2492
-2729
-2967
-2894
-2822
-2962
-3101
-2929
-2758
-2450
-2142
-2565
-2988
-2761
-2533
-3038
-3544
-2971
-2398
-2504
-2610
-2851
-3093
-3203
-3313
-3271
-3229
-3307
-3384
-3473
-3562
-3449
-3336
-3303
-3269
-3614
-3959
-3917
-3875
-4206
-4538
-4236
-3934
-3603
-3272
-3255
-3239
-3202
-3165
-3805
-4444
-4313
-4182
-3973
-3764
-3669
-3575
-3420
-3266
-3656
-4047
-4199
-4351
-4622
-4893
-4146
-3400
-3203
-3005
-3015
-3026
-3558
-4090
-3938
-3786
-3902
-4019
-3950
-3880
-3226
-2572
-3820
-5068
-4239
-3409
-3583
-3758
-3943
-4129
-3965
-3801
-3553
-3305
-3382
-3459
-3581
-3703
-3749
-3795
-3575
-3356
-3416
-3477
-3471
-3464
-3344
-3224
-3491
-3759
-3845
-3932
-3876
-3820
-3623
-3425
-3123
-2820
-2758
-2696
-3412
-4127
-3857
-3587
-3292
-2998
-2984
-2970
-2952
-2933
-3083
-3233
-3043
-2853
-3260
-3667
-3847
-4026
-3423
-2820
-2857
-2894
-2843
-2792
-2773
-2754
-3007
-3260
-3484
-3707
-3490
-3272
-3095
-2918
-2628
-2338
-2660
-2983
-3071
-3158
-3424
-3690
-3194
-2698
-3012
-3325
-2856
-2386
-2791
-3196
-3148
-3100
-3199
-3298
-3167
-3035
-2863
-2691
-2942
-3194
-3152
-3110
-3256
-3403
-3157
-2912
-2779
-2646
-2400
-2155
-2716
-3277
-3079
-2882
-3061
-3240
-3134
-3028
-3200
-3373
-3413
-3453
-2937
-2421
-2657
-2892
-3014
-3136
-3067
-2999
-2797
-2594
-2483
-2371
-2407
-2443
-3123
-3804
-3699
-3593
-3249
-2905
-2645
-2385
-2546
-2706
-2563
-2420
-2789
-3157
-2787
-2417
-2415
-2413
-2605
-2797
-2499
-2201
-2606
-3010
-3048
-3086
-2920
-2754
-2556
-2358
-2340
-2321
-2345
-2370
-2212
-2054
-2194
-2334
-2346
-2359
-2511
-2663
-2315
-1967
-1626
-1284
-1917
-2551
-2240
-1929
-2131
-2332
-2236
-2139
-1878
-1617
-1955
-2293
-2175
-2058
-2444
-2831
-2750
-2669
-2723
-2777
-2607
-2438
-2281
-2123
-2326
-2529
-2521
-2513
-2777
-3040
-2662
-2284
-2406
-2527
-2314
-2100
-2180
-2261
-2500
-2740
-2930
-3119
-2640
-2161
-2129
-2097
-2042
-1986
-2140
-2293
-2461
-2630
-2771
-2913
-2487
-2061
-2197
-2334
-2069
-1805
-1782
-1759
-1536
-1313
-1251
-1190
-614
-38
-752
-1466
-724
18
-1003
-2024
-2262
-2499
-3005
-3511
-3385
-3258
-3572
-3886
-3620
-3355
-3347
-3338
-3451
-3565
-3439
-3312
-3133
-2954
-2371
-1787
-1820
-1852
-1920
-1988
-1915
-1843
-2082
-2321
-2169
-2016
-1494
-971
-1344
-1716
-1835
-1955
-2022
-2089
-2108
-2127
-2106
-2085
-1724
-1362
-1291
-1219
-1330
-1441
-1976
-2511
-2054
-1597
-1564
-1532
-1635
-1738
-1118
-499
-851
-1204
-1553
-1902
-1697
-1492
-1347
-1203
-1011
-819
-896
-973
-1294
-1615
-1729
-1843
-1868
-1893
-1367
-841
-782
-723
-949
-1174
-954
-734
-1010
-1287
-1307
-1326
-1316
-1307
-875
-443
-474
-505
-521
-537
-1019
-1502
-1392
-1282
-839
-396
-466
-535
-241
52
-585
-1221
-976
-731
-1008
-1285
-606
72
-159
-390
-260
-131
-194
-256
-766
-1275
-1287
-1298
-743
-189
142
474
331
188
6
-177
-384
-591
-546
-502
-298
-94
-94
-95
175
445
123
-199
-171
-142
-584
-1026
-477
71
86
101
98
95
-392
-879
-787
-695
-722
-748
-502
-256
-280
-304
-846
-1389
-1290
-1191
-1408
-1625
-1362
-1099
-1208
-1316
-1447
-1578
-1675
-1772
-1709
-1646
-1940
-2234
-2268
-2302
-2083
-1864
-1717
-1570
-1743
-1916
-1975
-2034
-1904
-1775
-2288
-2801
-2346
-1890
-1819
-1747
-1670
-1593
-2058
-2524
-2575
-2625
-2046
-1468
-1615
-1761
-1400
-1038
-1324
-1611
-1637
-1663
-2044
-2425
-2037
-1649
-1878
-2106
-1881
-1657
-1566
-1475
-1530
-1585
-1915
-2244
-2293
-2343
-2001
-1658
-1349
-1041
-1466
-1891
-1826
-1761
-1789
-1817
-1825
-1833
-1759
-1685
-1639
-1594
-935
-275
-934
-1593
-1808
-2022
-1667
-1311
-1318
-1325
-1448
-1571
-1339
-1107
-1228
-1350
-1437
-1524
-1483
-1442
-1102
-762
-816
-869
-1093
-1317
-968
-619
-1818
-3017
-2281
-1546
-1130
-714
-955
-1197
-1294
-1391
-1316
-1241
-1626
-2011
-1770
-1530
-1149
-768
-755
-741
-1209
-1678
-1319
-960
-1027
-1094
-1189
-1284
-968
-652
-696
-740
-943
-1146
-882
-619
-621
-624
-924
-1223
-1140
-1057
-716
-374
-795
-1217
-1460
-1702
-1449
-1196
-1311
-1426
-1156
-886
-926
-966
-1156
-1347
-1047
-746
-1011
-1276
-1431
-1586
-1768
-1951
-1156
-359
-643
-926
-1166
-1406
-1360
-1314
-1135
-956
-875
-793
-757
-720
-730
-740
-1190
-1639
-1570
-1501
-1089
-677
-727
-777
-670
-562
-1016
-1471
-1238
-1005
-907
-809
-853
-897
-1007
-1116
-685
-253
-568
-884
-1279
-1675
-1394
-1112
-747
-382
-86
210
110
9
-248
-506
-301
-96
-303
-510
-210
90
-79
-248
-73
101
-371
-844
-1003
-1162
-1115
-1068
-794
-520
-522
-524
-490
-456
-637
-817
-960
-1103
-1264
-1425
-1089
-752
-693
-635
-692
-749
-790
-830
-1015
-1201
-1172
-1142
-764
-386
-577
-768
-528
-288
-788
-1288
-1406
-1524
-1065
-606
-813
-1019
-406
206
-196
-598
-606
-614
-532
-450
-442
-433
160
751
1321
1891
1836
1780
1625
1469
500
-470
-878
-1286
-1381
-1477
-1453
-1428
-1561
-1694
-2081
-2468
-2665
-2861
-2677
-2494
-1826
-1159
-1024
-889
-1339
-1789
-1153
-517
-697
-877
-716
-554
-274
6
48
90
107
124
-522
-1168
-955
-741
-847
-953
-426
100
144
187
138
90
-88
-265
-462
-658
-392
-126
-134
-141
-298
-454
-301
-147
-371
-595
-424
-253
-308
-363
-99
165
343
521
316
111
-229
-568
-728
-887
-227
432
302
172
477
781
596
410
207
3
-197
-398
-400
-401
87
575
612
649
869
1089
579
70
140
211
445
679
812
945
836
727
807
886
786
687
282
-123
325
772
614
456
907
1358
866
375
520
664
759
855
601
346
930
1514
1374
1233
1373
1512
1297
1081
961
842
994
1145
1362
1580
1346
1112
1109
1107
1038
969
1055
1141
1496
1850
1597
1344
1551
1759
1463
1166
1031
896
433
-31
510
1051
1205
1359
993
627
851
1074
439
-197
-149
-101
240
581
181
-220
-155
-90
-326
-562
-47
469
39
-392
-821
-1249
-444
361
-23
-408
-328
-249
-481
-713
-705
-697
-1047
-1398
-842
-287
-376
-465
-576
-688
-769
-851
-1039
-1228
-1038
-848
-921
-994
-736
-478
-879
-1281
-1083
-885
-1171
-1458
-1076
-693
-476
-260
-288
-316
-600
-884
-787
-689
-721
-753
-551
-349
-939
-1529
-814
-99
-529
-958
-723
-488
-994
-1502
-1008
-514
-630
-747
-667
-588
-560
-532
-638
-743
-838
-934
-590
-246
-219
-192
-219
-246
-404
-561
-768
-975
-810
-646
-416
-186
-224
-262
-146
-30
79
189
-302
-792
-585
-377
-334
-292
-229
-167
-265
-363
-119
124
-281
-687
-441
-195
-167
-139
241
621
-304
-1230
-760
-290
-399
-508
-328
-148
-13
121
92
62
111
159
-170
-498
-499
-500
-425
-349
-276
-204
-74
55
43
31
-359
-749
-562
-374
-386
-399
-51
298
274
250
256
262
-170
-602
-592
-583
-496
-408
-555
-702
-207
289
64
-161
-48
65
-280
-625
-242
140
179
219
120
22
-66
-154
-52
50
-63
-177
-7
162
314
465
125
-214
-304
-395
-88
220
66
-88
-173
-258
48
354
387
421
450
479
24
-431
-323
-215
150
516
508
501
655
809
638
467
444
420
334
247
-6
-259
141
542
434
326
848
1371
971
570
640
711
707
702
753
804
959
1113
676
239
236
234
202
170
282
394
613
832
653
474
394
313
300
287
238
188
393
598
733
869
619
369
473
577
536
494
313
133
269
406
623
840
622
403
402
401
316
231
118
4
92
179
1061
1942
1701
1459
1742
2025
1836
1648
1823
1998
2368
2739
2579
2418
1761
1105
947
789
129
-532
-676
-820
-782
-744
-630
-516
-644
-773
-659
-544
-653
-761
-426
-90
87
264
332
399
568
737
942
1148
486
-177
181
539
439
338
540
743
1068
1393
881
369
97
-175
498
1172
1203
1234
1153
1071
844
617
696
775
763
751
973
1196
1163
1131
1352
1572
1562
1552
1352
1152
898
644
626
607
982
1358
1448
1539
1395
1251
1120
989
1030
1070
1057
1045
1062
1078
1261
1444
1474
1504
1307
1111
1042
973
883
793
1414
2035
1546
1058
1399
1740
1840
1940
1484
1027
782
537
869
1202
1999
2795
2660
2524
2158
1793
1514
1235
1432
1629
1896
2163
1966
1768
1994
2219
1922
1624
1718
1811
1866
1921
2028
2136
2390
2644
2575
2505
2434
2362
2059
1756
1693
1631
1932
2233
2434
2635
2663
2692
2567
2442
2037
1632
2087
2543
2189
1835
2711
3590
2850
2109
2645
3181
2101
1021
1413
1805
2151
2497
2408
2319
2036
1753
1438
1123
993
864
893
922
967
1012
1078
1144
1162
1181
815
448
415
383
431
479
670
861
846
830
643
456
330
204
111
17
75
133
366
599
815
1031
625
219
38
-143
-269
-396
254
903
811
719
899
1080
639
199
77
-45
-230
-416
86
589
643
697
675
654
795
935
633
331
350
370
381
392
638
883
808
733
784
834
429
24
-81
-185
196
578
765
952
1030
1109
810
511
565
620
346
73
302
531
691
851
1034
1218
972
727
415
102
252
403
766
1128
988
847
1129
1412
1050
688
746
803
451
99
380
662
849
1037
1271
1505
1312
1118
864
611
449
287
632
978
1005
1032
1066
1101
993
885
740
596
411
226
506
786
876
966
862
758
697
635
268
-99
317
733
901
1068
870
672
795
917
835
754
565
376
349
322
737
1152
1220
1288
1131
974
891
808
971
1133
887
640
787
934
1182
1430
1448
1467
1285
1102
1053
1004
1181
1357
1613
1870
1481
1092
1257
1421
1101
780
590
400
505
611
731
852
818
783
820
857
715
573
283
-6
329
664
937
1210
417
-377
504
1385
1055
724
519
314
622
930
913
897
1233
1570
844
119
105
90
569
1048
692
335
837
1340
1371
1401
1214
1026
827
628
411
194
377
561
964
1367
1872
2377
2467
2558
2556
2555
2205
1854
1755
1656
1186
716
578
439
-121
-680
-676
-671
-816
-961
-883
-805
-508
-210
-691
-1172
-135
900
307
-286
51
388
355
321
965
1610
1397
1184
1154
1124
1054
984
1006
1028
796
564
813
1061
1298
1536
1368
1200
1250
1300
1196
1093
769
446
663
879
1464
2050
1530
1010
1140
1271
1120
969
1001
1033
1133
1234
1444
1655
1555
1454
1402
1350
1172
993
975
956
971
986
1233
1481
1634
1786
1395
1004
952
901
1006
1112
1275
1437
1384
1331
1691
2051
1588
1125
785
445
1058
1671
1688
1704
2051
2398
1879
1360
1269
1178
1419
1661
1595
1529
1715
1901
1799
1697
1669
1642
1587
1531
1321
1110
1558
2006
1926
1846
2104
2362
2120
1878
1805
1732
1796
1859
1902
1944
1960
1976
2385
2794
2636
2477
2194
1911
2078
2244
2204
2164
2438
2712
1583
453
1160
1866
1854
1843
1929
2015
2166
2317
2380
2444
2094
1743
1553
1363
1402
1440
1221
1002
1178
1353
1043
733
665
598
671
744
599
455
302
148
255
363
185
7
170
334
117
-100
-285
-471
-1022
-1575
-525
526
146
-233
72
376
213
51
-162
-375
-467
-560
-349
-138
-312
-486
-237
11
-96
-204
-541
-879
-902
-926
-333
260
108
-44
147
338
-92
-522
-647
-771
-804
-837
-448
-60
167
394
-33
-459
-739
-1019
-511
-3
-204
-405
-260
-115
20
154
-55
-265
-8
250
-124
-497
-597
-698
-256
186
217
248
-18
-285
-450
-615
-499
-383
-697
-1010
-389
231
187
142
-22
-186
-15
156
-104
-363
-345
-327
-505
-684
-144
396
379
362
132
-97
-188
-280
-263
-246
-64
118
276
435
-23
-480
-692
-904
-221
461
291
121
105
89
89
89
473
857
235
-387
-347
-306
-171
-37
185
408
186
-37
108
254
-258
-768
-196
377
229
82
231
380
465
550
611
673
395
116
40
-36
139
313
730
1147
863
579
383
186
290
393
312
230
138
45
-8
-61
145
350
269
188
-72
-332
-435
-538
-132
274
451
628
325
21
-653
-1328
-661
6
-33
-72
28
128
247
367
443
520
244
-31
-90
-149
-75
-2
-313
-624
-119
387
256
125
154
184
43
-99
-183
-267
-308
-349
11
370
493
616
1093
1570
1541
1511
1301
1092
1478
1865
1449
1033
810
587
174
-239
-656
-1072
-1267
-1461
-1410
-1360
-1265
-1169
-1127
-1085
-905
-725
-928
-1131
-991
-850
-486
-122
88
297
307
317
194
72
220
367
55
-258
-11
236
290
344
434
523
351
179
-32
-243
-153
-64
149
363
613
863
781
698
491
283
636
989
371
-247
-241
-234
155
544
600
656
656
657
151
-356
-115
125
210
294
568
843
733
624
532
439
292
146
-131
-409
26
462
462
463
471
479
546
613
418
223
345
467
313
159
275
391
580
769
-102
-973
-281
412
496
580
911
1242
1099
957
968
979
1169
1359
461
-439
161
760
960
1160
578
-5
495
995
903
812
530
247
637
1026
1216
1406
1096
787
1028
1270
1161
1051
879
707
783
859
867
874
1189
1504
1344
1184
998
812
919
1026
357
-311
294
900
877
854
883
912
680
447
29
-388
-235
-83
19
121
369
618
-74
-766
-658
-550
-755
-960
-1163
-1366
-1541
-1716
-1250
-783
-613
-442
-719
-996
-1295
-1593
-1479
-1365
-1593
-1821
-1653
-1485
-1433
-1381
-1243
-1104
-1465
-1826
-1694
-1562
-1592
-1622
-1386
-1149
-1322
-1496
-1543
-1590
-1455
-1321
-1478
-1635
-1614
-1594
-1429
-1265
-1373
-1481
-1797
-2114
-2057
-1999
-1817
-1635
-1481
-1327
-1361
-1396
-1331
-1265
-1580
-1895
-2159
-2423
-2343
-2264
-1531
-798
-1188
-1578
-1744
-1909
-1680
-1451
-1939
-2427
-2346
-2264
-1604
-944
-990
-1035
-1355
-1676
-1806
-1935
-1917
-1898
-1881
-1864
-1584
-1305
-1333
-1362
-1499
-1636
-1779
-1922
-1853
-1785
-1892
-1999
-1904
-1809
-1604
-1399
-1569
-1738
-1983
-2227
-1964
-1701
-1571
-1442
-1588
-1735
-1595
-1456
-1833
-2210
-2256
-2301
-1959
-1617
-1613
-1609
-1586
-1563
-1501
-1439
-1511
-1583
-1690
-1797
-2074
-2351
-2032
-1714
-1390
-1066
-1491
-1915
-1695
-1475
-1731
-1986
-2259
-2533
-1963
-1393
-1416
-1438
-1177
-917
-1695
-2473
-2364
-2255
-1848
-1441
-1702
-1963
-1502
-1041
-1150
-1258
-1597
-1936
-2092
-2248
-2056
-1863
-1571
-1278
-1483
-1688
-1299
-910
-1004
-1099
-1860
-2622
-2035
-1448
-1492
-1537
-1556
-1576
-1780
-1983
-1986
-1988
-2052
-2115
-2313
-2511
-2093
-1676
-1620
-1563
-2496
-3432
-2389
-1347
-1517
-1687
-2172
-2658
-2482
-2306
-1951
-1596
-1751
-1907
-1966
-2026
-2356
-2687
-2567
-2447
-2213
-1979
-1829
-1678
-1615
-1553
-1938
-2323
-2168
-2013
-1872
-1731
-1817
-1903
-1501
-1099
-715
-332
-425
-518
-528
-537
-355
-172
-219
-266
-749
-1233
-1724
-2214
-2474
-2734
-2838
-2942
-3401
-3860
-3898
-3936
-3202
-2468
-2803
-3137
-2673
-2208
-2716
-3226
-2929
-2631
-2488
-2346
-1948
-1550
-1730
-1911
-1854
-1797
-2038
-2280
-2156
-2032
-1940
-1847
-1540
-1233
-1570
-1907
-1765
-1623
-1887
-2151
-1996
-1841
-1800
-1758
-1666
-1573
-1815
-2057
-1779
-1501
-1816
-2130
-2303
-2475
-1975
-1476
-1421
-1366
-1736
-2107
-1889
-1671
-1648
-1625
-1807
-1989
-1672
-1356
-1360
-1364
-1289
-1215
-1474
-1733
-2181
-2629
-2157
-1686
-1923
-2160
-1775
-1390
-1286
-1183
-1179
-1174
-1500
-1826
-1785
-1744
-1536
-1327
-1638
-1949
-1706
-1463
-1558
-1652
-1634
-1615
-1584
-1552
-1361
-1170
-1156
-1141
-932
-723
-1634
-2545
-1679
-811
-1055
-1299
-1094
-888
-805
-723
-760
-797
-1189
-1581
-1414
-1248
-919
-591
-649
-706
-526
-345
-434
-522
-764
-1006
-1278
-1550
-1273
-995
-1204
-1413
-1168
-923
-942
-961
-1118
-1274
-1184
-1093
-1504
-1916
-795
326
-4
-334
-1157
-1980
-1767
-1554
-1844
-2133
-2244
-2355
-1779
-1203
-1516
-1830
-1850
-1870
-2408
-2945
-2684
-2423
-2509
-2596
-2392
-2188
-2227
-2265
-2630
-2995
-3108
-3220
-3182
-3145
-3094
-3044
-2715
-2386
-2497
-2608
-2781
-2955
-2833
-2711
-3020
-3328
-3036
-2744
-2499
-2254
-2677
-3099
-2795
-2491
-2805
-3118
-3276
-3434
-3158
-2883
-2912
-2941
-2685
-2430
-2468
-2506
-2814
-3121
-2927
-2733
-2586
-2440
-2455
-2471
-2646
-2822
-2820
-2819
-2980
-3141
-3098
-3056
-2924
-2792
-2637
-2481
-2440
-2399
-2260
-2122
-2693
-3264
-3464
-3664
-3147
-2631
-2206
-1782
-1770
-1758
-2617
-3477
-3419
-3362
-3109
-2856
-2511
-2165
-1840
-1516
-1743
-1971
-2277
-2584
-2849
-3113
-2782
-2450
-2536
-2623
-2281
-1940
-2034
-2127
-2290
-2454
-2540
-2626
-2375
-2125
-2046
-1967
-1855
-1743
-1902
-2061
-2358
-2655
-2340
-2025
-2033
-2042
-1948
-1854
-1642
-1431
-1276
-1122
-2039
-2955
-2538
-2121
-1940
-1760
-1614
-1468
-1544
-1621
-2094
-2568
-2405
-2242
-2305
-2368
-1950
-1532
-1433
-1335
-1359
-1383
-1416
-1448
-1970
-2493
-2280
-2067
-2003
-1940
-1768
-1597
-1463
-1329
-1309
-1289
-1566
-1843
-1723
-1604
-1989
-2373
-1833
-1294
-1147
-1001
-1168
-1335
-1519
-1703
-1585
-1467
-1474
-1481
-975
-469
-1041
-1613
-1348
-1083
-1058
-1033
-1063
-1093
-700
-307
-445
-582
-606
-630
-532
-434
-481
-528
-668
-807
-1038
-1269
-714
-158
-427
-697
-773
-850
-1377
-1904
-1672
-1439
-1400
-1362
-1145
-929
-1077
-1224
-1109
-994
-1291
-1589
-1488
-1386
-1239
-1093
-1141
-1189
-808
-426
-455
-485
-1371
-2257
-1431
-606
-976
-1346
-1120
-894
-542
-190
-413
-636
-978
-1321
-1256
-1191
-916
-641
-511
-380
-544
-708
-629
-550
-620
-691
-618
-544
-376
-208
373
954
1264
1574
1041
507
1160
1814
1514
1213
916
618
142
-335
-392
-449
-941
-1431
-1707
-1982
-2626
-3270
-2396
-1522
-1261
-999
-831
-664
-582
-500
-504
-507
-588
-670
-755
-840
-229
383
384
384
336
288
-320
-928
-541
-154
-137
-121
144
409
410
411
241
71
136
201
31
-139
-48
44
394
745
553
362
214
65
95
125
-48
-220
108
436
63
-309
-16
277
497
716
606
495
567
639
610
580
609
638
608
578
643
709
214
-282
74
431
661
890
1020
1150
1112
1074
657
240
279
318
424
531
772
1013
906
799
797
795
792
789
576
362
395
429
383
337
702
1066
1179
1291
760
227
210
194
355
516
487
457
515
572
772
972
1187
1402
1086
769
582
395
959
1524
1608
1692
1563
1434
1242
1050
969
888
931
973
1230
1487
1473
1458
1354
1250
1109
968
814
660
790
920
783
647
869
1091
567
43
238
433
248
62
-247
-556
-274
8
-167
-341
-263
-186
-501
-816
-870
-923
-827
-732
-448
-165
-727
-1290
-1152
-1014
-846
-679
-839
-998
-943
-887
-692
-498
-517
-537
-593
-650
-724
-797
-1177
-1557
-1307
-1058
-1020
-983
-683
-384
-609
-834
-1000
-1166
-1234
-1302
-1177
-1052
-863
-674
-666
-659
-727
-795
-807
-820
-1041
-1263
-1243
-1223
-839
-456
-914
-1372
-1548
-1725
-1064
-402
-820
-1237
-1591
-1944
-1337
-731
-318
95
-302
-699
-475
-252
-710
-1168
-1084
-1001
-789
-576
-439
-301
-484
-668
-881
-1095
-983
-871
-704
-538
-487
-435
-563
-692
-614
-537
-717
-898
-889
-880
-729
-578
-367
-156
-161
-167
-475
-783
-628
-473
-649
-825
-848
-872
-518
-165
-118
-71
-506
-940
-1158
-1376
-716
-55
-145
-234
2
239
-258
-755
-213
329
117
-95
-362
-630
-255
120
33
-54
151
355
-98
-551
-419
-287
-486
-685
-356
-27
130
287
267
247
78
-91
-137
-184
-327
-471
-192
86
305
524
303
83
130
177
-11
-200
-251
-302
25
352
377
402
64
-274
-317
-360
-1005
-1650
-828
-5
358
721
519
318
451
583
668
753
224
-304
-211
-118
248
613
741
870
833
796
521
247
239
231
344
457
663
870
947
1024
1131
1239
1194
1149
628
106
247
388
484
581
559
537
509
480
270
59
-56
-172
-439
-706
5
716
696
676
660
644
595
546
-227
-1002
-508
-14
241
495
688
882
731
580
349
119
314
508
394
280
228
176
433
691
820
949
712
475
120
-235
324
883
836
789
854
920
1374
1830
1989
2148
2145
2142
2221
2300
2556
2812
2610
2409
1505
600
364
129
-244
-616
-794
-973
-841
-709
-500
-290
-339
-388
-496
-604
-585
-565
22
609
1117
1624
711
-203
461
1126
601
75
371
668
647
627
906
1184
1172
1159
1051
943
857
770
673
576
681
786
936
1086
1244
1402
1217
1033
830
627
675
722
891
1060
1252
1444
1118
791
819
847
886
925
797
670
734
797
945
1094
1237
1379
1339
1299
940
581
747
913
1119
1325
1410
1494
1270
1046
1320
1593
1151
710
729
748
880
1012
1347
1681
1766
1850
1736
1622
1285
948
1001
1054
1313
1572
1687
1802
1956
2110
1917
1723
1471
1219
1247
1276
1288
1300
1745
2189
1912
1635
1730
1826
1704
1582
1252
923
1533
2143
2097
2051
2332
2613
1876
1140
1588
2036
1965
1893
1915
1938
2090
2241
2396
2551
2256
1961
1963
1964
1940
1917
1867
1817
2170
2523
2052
1581
1637
1693
1224
755
855
956
937
918
1114
1310
1305
1299
809
320
94
-132
-123
-114
254
621
639
657
536
414
-131
-675
-405
-135
-248
-362
-106
150
229
308
251
194
107
20
-280
-580
-365
-149
-90
-32
132
296
402
507
22
-463
-394
-325
-488
-650
-350
-50
-45
-41
-96
-151
-47
56
-221
-499
-386
-272
-404
-536
-265
6
60
113
70
28
-132
-292
-547
-802
-200
400
-398
-1196
-445
307
95
-116
-357
-597
-883
-1170
-329
514
604
694
509
325
178
31
-205
-440
-389
-337
-177
-16
117
249
195
140
59
-22
6
34
-126
-285
-2
281
67
-147
-124
-101
-62
-24
-194
-364
-509
-653
-190
273
401
530
464
397
178
-42
-80
-118
-228
-337
-30
277
468
659
758
857
351
-155
-121
-86
121
329
338
347
298
248
378
508
397
285
0
-284
-50
183
548
913
1038
1163
966
769
201
-366
-149
69
33
-3
284
570
846
1123
906
688
670
653
518
383
499
615
959
1304
1330
1356
1000
644
482
321
127
-67
150
366
248
129
317
506
64
-379
-382
-385
-73
239
593
946
783
621
101
-418
186
790
459
127
31
-66
155
375
557
738
665
592
456
319
187
55
-41
-137
142
420
624
828
763
697
529
360
407
454
266
77
131
186
616
1046
1431
1817
2014
2212
2234
2255
2256
2257
1615
973
778
583
490
398
8
-381
-482
-583
-690
-798
-903
-1007
-536
-66
-55
-43
-94
-144
-212
-279
-269
-258
152
561
796
1032
1059
1086
868
649
477
306
568
830
834
838
1243
1649
1134
618
657
696
685
674
564
454
732
1010
1057
1104
916
727
922
1117
761
405
548
691
1003
1315
1411
1507
1628
1749
499
-751
189
1126
1298
1469
926
382
791
1200
1556
1913
1487
1060
1038
1015
964
912
1018
1124
1335
1546
1269
992
1137
1282
1154
1027
998
968
1288
1609
1563
1516
1669
1822
1565
1307
1217
1127
1095
1063
1082
1102
1267
1432
1713
1994
1796
1597
1330
1063
1155
1247
1360
1472
1786
2100
1597
1093
1370
1647
1625
1603
1679
1756
2082
2408
2439
2471
2239
2007
1885
1763
1595
1428
1490
1552
2033
2516
2498
2481
2458
2436
1638
841
576
312
1100
1886
1591
1295
1299
1303
1582
1861
1505
1149
493
-163
108
380
788
1195
1170
1145
672
199
123
47
83
120
87
55
138
221
33
-155
-108
-61
-97
-133
-197
-262
-192
-122
-383
-644
-469
-294
-149
-3
-383
-763
-679
-595
-577
-559
-358
-157
-194
-231
-454
-676
-705
-734
-503
-273
-319
-365
-791
-1218
-585
46
-85
-217
-614
-1011
-836
-660
-498
-337
-184
-30
-297
-565
-625
-686
-613
-540
-937
-1334
-1110
-887
-355
176
198
220
-226
-672
-690
-707
-956
-1205
-703
-203
-477
-751
-549
-348
-148
51
-112
-275
-381
-487
-252
-17
-64
-112
-139
-165
-183
-201
-643
-1086
-767
-448
-550
-652
-488
-324
434
1192
73
-1046
-833
-620
-1175
-1732
-1014
-296
230
756
353
-50
-229
-408
-387
-365
-510
-655
-542
-429
23
474
423
371
374
377
-210
-796
-466
-135
-195
-255
-173
-91
140
372
369
366
25
-317
-191
-65
92
249
243
236
269
302
203
104
-247
-599
-76
448
327
205
614
1023
875
726
535
344
102
-141
-228
-315
-500
-686
-104
479
404
328
185
43
60
77
-185
-447
-263
-80
-62
-44
335
713
330
-52
-285
-518
-397
-276
-169
-62
70
202
143
85
-120
-324
-196
-67
-118
-169
-150
-131
119
368
376
383
84
-215
56
326
501
677
787
896
1201
1507
1499
1491
1884
2277
1922
1566
1202
838
655
472
518
563
-425
-1413
-1116
-819
-1258
-1696
-1691
-1685
-1493
-1302
-882
-463
-324
-185
-170
-154
-409
-663
-340
-17
37
91
195
298
369
441
377
314
-188
-690
-194
303
504
705
952
1200
945
691
401
111
117
124
248
372
172
-27
659
1344
780
215
120
25
-128
-282
-45
192
443
695
739
782
675
567
740
912
666
421
594
768
782
796
661
527
712
898
470
42
25
8
343
678
846
1015
916
818
771
724
802
880
725
570
399
228
579
930
997
1064
724
385
403
421
261
101
585
1069
1258
1447
1161
874
602
330
577
825
1043
1261
1411
1561
1295
1028
984
941
1237
1533
1125
717
716
715
981
1248
1302
1357
1495
1632
1430
1227
1104
982
1197
1413
1372
1331
1349
1366
1356
1346
1331
1315
970
625
637
649
676
703
866
1029
911
793
597
401
301
202
37
-128
-258
-388
-122
145
303
460
184
-91
-486
-882
-714
-545
-571
-598
-719
-840
-879
-918
-577
-235
-713
-1190
-1232
-1275
-1171
-1068
-663
-259
-594
-929
-850
-771
-894
-1016
-1323
-1631
-1358
-1085
-1074
-1063
-903
-743
-898
-1054
-1130
-1206
-1152
-1099
-1465
-1832
-1315
-799
-673
-547
-779
-1011
-872
-733
-1015
-1297
-1060
-822
-761
-699
-713
-727
-827
-927
-1031
-1135
-1104
-1073
-891
-710
-1182
-1655
-1447
-1239
-1108
-976
-891
-806
-835
-864
-1010
-1156
-1021
-886
-597
-309
-900
-1492
-1710
-1928
-1420
-913
-924
-934
-830
-727
-657
-587
-1277
-1968
-1204
-440
-494
-547
-884
-1221
-601
18
-58
-135
-374
-612
-854
-1096
-1143
-1189
-1280
-1372
-871
-371
-301
-230
-653
-1075
-873
-671
-791
-912
-712
-511
-222
67
17
-33
-349
-666
-714
-763
-631
-499
-846
-1193
-637
-81
-48
-16
-331
-645
-1131
-1618
-1238
-857
-565
-272
-157
-43
-53
-62
-336
-611
-684
-756
-634
-512
-588
-664
-205
254
-300
-856
-699
-543
-502
-462
-265
-67
98
264
297
330
71
-187
-136
-85
-450
-814
-237
339
464
590
686
782
536
290
-409
-1108
-688
-268
-374
-480
-283
-85
-121
-157
-474
-792
-735
-678
-565
-451
-218
14
-78
-170
-185
-200
-467
-734
-782
-830
-832
-833
-525
-216
-233
-250
-206
-163
-122
-82
-9
63
-223
-509
-537
-566
-257
51
-35
-122
-176
-230
7
243
-67
-376
-26
325
914
1502
1694
1886
1987
2088
1891
1693
1371
1048
843
637
298
-40
-113
-185
-662
-1138
-1484
-1830
-1747
-1665
-1331
-998
-897
-796
-958
-1120
-509
103
-20
-143
-311
-478
-174
129
519
910
792
674
100
-475
-488
-502
-628
-754
-36
682
536
390
349
308
195
83
250
417
31
-355
-108
140
524
909
747
586
647
709
368
27
505
982
460
-63
295
653
632
612
767
921
769
617
209
-199
174
546
630
713
629
546
698
850
523
195
93
-10
236
482
787
1091
874
657
651
644
754
864
549
234
265
297
663
1029
1118
1207
907
608
554
501
629
756
685
614
889
1163
1231
1298
886
473
375
277
228
178
817
1456
1626
1795
1709
1623
1124
626
953
1280
1169
1057
1192
1328
1240
1153
1392
1631
1303
975
957
940
872
804
878
951
1250
1550
1258
966
885
803
678
552
780
1008
1006
1004
1161
1318
386
-546
95
735
632
529
-52
-631
20
672
526
380
193
5
-6
-17
-539
-1062
-963
-864
-455
-47
-126
-205
-217
-228
-510
-793
-830
-867
-834
-801
-832
-862
-605
-348
-491
-633
-652
-672
-918
-1164
-1229
-1295
-1121
-947
-581
-214
-531
-849
-884
-920
-1102
-1284
-1302
-1321
-1021
-722
-693
-664
-659
-655
-876
-1097
-916
-735
-803
-871
-473
-75
-220
-364
-569
-775
-500
-225
-777
-1329
-1046
-763
-690
-618
-583
-547
-710
-873
-1005
-1137
-1012
-887
-861
-835
-809
-784
-524
-265
-381
-498
-633
-767
-1027
-1286
-1386
-1485
-750
-13
-73
-134
58
249
-272
-793
-648
-504
-683
-861
-908
-956
-276
403
-5
-412
-457
-502
-519
-536
-546
-557
-276
4
90
177
-384
-946
-818
-691
-595
-498
-264
-31
-106
-181
-55
72
-94
-260
-602
-943
-880
-818
-471
-124
73
270
248
227
199
171
-234
-639
-519
-399
-549
-698
-80
538
348
157
27
-104
-296
-489
-583
-676
-600
-524
180
885
474
64
-59
-181
-455
-729
-596
-462
-326
-189
-104
-19
227
473
188
-97
-211
-325
-259
-192
-148
-104
255
615
403
192
411
630
326
22
-132
-286
-150
-15
189
393
339
286
282
277
120
-36
42
120
56
-8
333
675
882
1090
622
154
107
60
290
520
872
1224
1513
1801
946
91
166
242
-37
-316
165
646
560
474
870
1267
1126
985
758
531
354
177
37
-104
258
621
657
692
697
702
674
646
385
124
123
122
287
451
526
602
706
810
685
560
398
236
281
326
538
751
912
1073
768
463
364
