timestamp: ADC
1479459948  28504
1479459948  24154
1479459948  24706
1479459948  21623
1479459948  9167
1479459948  -4451
1479459948  -7270
1479459948  4062
1479459948  18022
1479459948  22136
1479459948  18084
1479459948  13386
1479459948  12520
1479459948  11733
1479459948  7725
1479459948  3046
1479459948  3291
1479459948  7878
1479459948  12258
1479459948  10541
1479459948  4010
1479459948  -2383
1479459948  -3093
1479459948  3162
1479459948  12147
1479459948  16640
1479459948  11902
1479459948  -1511
1479459948  -16968
1479459948  -27335
1479459948  -29786
1479459948  -27775
1479459948  -25384
1479459948  -23550
1479459948  -19063
1479459948  -11876
1479459948  -5659
1479459948  -6195
1479459948  -14950
1479459948  -25787
1479459948  -30514
1479459948  -26762
1479459948  -22106
1479459948  -23273
1479459948  -28344
1479459948  -30023
1479459948  -22261
1479459948  -7873
1479459948  6011
1479459948  13849
1479459948  13452
1479459948  6618
1479459948  -5268
1479459948  -17291
1479459948  -22716
1479459948  -19014
1479459948  -9099
1479459948  -2312
1479459948  -3692
1479459948  -10354
1479459948  -13935
1479459948  -9317
1479459948  564
1479459948  7824
1479459948  7145
1479459948  -497
1479459948  -8119
1479459948  -11840
1479459948  -10350
1479459948  -4570
1479459948  4267
1479459948  11994
1479459948  13302
1479459948  3266
1479459948  -13165
1479459948  -23793
1479459948  -19534
1479459948  -5629
1479459948  4112
1479459948  -1701
1479459948  -16230
1479459948  -25121
1479459948  -18441
1479459948  -2346
1479459948  9134
1479459948  10414
1479459948  4472
1479459948  -639
1479459948  -3307
1479459948  -3311
1479459948  -1775
1479459948  1285
1479459948  4520
1479459948  4698
1479459948  404
1479459948  -4618
1479459948  -5207
1479459948  -1592
1479459948  -158
1479459948  -4441
1479459948  -10704
1479459948  -11944
1479459948  -5772
1479459948  2818
1479459948  7983
1479459948  8958
1479459948  7175
1479459948  3043
1479459948  -2942
1479459948  -8268
1479459948  -7133
1479459948  1514
1479459948  9306
1479459948  7955
1479459948  865
1479459948  -1660
1479459948  6878
1479459948  17883
1479459948  18115
1479459948  5663
1479459948  -7731
1479459948  -11118
1479459948  -6459
1479459948  -1190
1479459948  1252
1479459948  3801
1479459948  7141
1479459948  6979
1479459948  2555
1479459948  -1847
1479459948  -2571
1479459948  -3994
1479459948  -12687
1479459948  -24441
1479459948  -26763
1479459948  -15066
1479459948  -1136
1479459948  -1718
1479459948  -16623
1479459948  -29145
1479459948  -27714
1479459948  -16028
1479459948  -8389
1479459948  -7690
1479459948  -8347
1479459948  -5445
1479459948  -4171
1479459948  -9279
1479459948  -17447
1479459948  -19141
1479459948  -12705
1479459948  -4243
1479459948  -1424
1479459948  -2458
1479459948  -1827
1479459948  1634
1479459948  3010
1479459948  -618
1479459948  -7280
1479459948  -11304
1479459948  -8800
1479459948  -826
1479459948  7164
1479459948  8337
1479459948  839
1479459948  -11332
1479459948  -18492
1479459948  -14815
1479459948  -3625
1479459948  6665
1479459948  10911
1479459948  9774
1479459948  6860
1479459948  1779
1479459948  -4927
1479459948  -10964
1479459948  -12519
1479459948  -9774
1479459948  -8722
1479459948  -13752
1479459948  -24160
1479459948  -31812
1479459948  -31814
1479459948  -26614
1479459948  -22090
1479459948  -21513
1479459948  -23977
1479459948  -25863
1479459948  -26763
1479459948  -26128
1479459948  -24568
1479459948  -22516
1479459948  -21029
1479459948  -20540
1479459948  -22591
1479459948  -25703
1479459948  -28204
1479459948  -28883
1479459948  -27656
1479459948  -25492
1479459948  -23538
1479459948  -22613
1479459948  -22458
1479459948  -22652
1479459948  -23007
1479459948  -23357
1479459948  -23203
1479459948  -22389
1479459948  -21068
1479459948  -19423
1479459948  -18302
1479459948  -18313
1479459948  -20337
1479459948  -22459
1479459948  -24095
1479459948  -24512
1479459948  -24788
1479459948  -25533
1479459948  -26172
1479459948  -25823
1479459948  -23519
1479459948  -22119
1479459948  -23973
1479459948  -26807
1479459948  -23950
1479459948  -9592
1479459948  9735
1479459948  20363
1479459948  13963
1479459948  -1779
1479459948  -10483
1479459948  -4942
1479459948  4365
1479459948  3516
1479459948  -8735
1479459948  -16927
1479459948  -11104
1479459948  2118
1479459948  6547
1479459948  -3392
1479459948  -15817
1479459948  -15554
1479459948  -1168
1479459948  14396
1479459948  17266
1479459948  5754
1479459948  -11023
1479459948  -21049
1479459948  -18793
1479459948  -7165
1479459948  3095
1479459948  5581
1479459948  2083
1479459948  -730
1479459948  776
1479459948  -24
1479459948  -8280
1479459948  -22087
1479459948  -28234
1479459948  -19491
1479459948  -4356
1479459948  2014
1479459948  -5380
1479459948  -16368
1479459948  -17763
1479459948  -8031
1479459948  3018
1479459948  6104
1479459948  896
1479459948  -4456
1479459948  -4859
1479459948  -1229
1479459948  1064
1479459948  192
1479459948  -2324
1479459948  -2266
1479459948  -341
1479459948  1318
1479459948  -177
1479459948  -1770
1479459948  -1389
1479459948  1479
1479459948  2176
1479459948  -2214
1479459948  -10654
1479459948  -16787
1479459948  -15758
1479459948  -8750
1479459948  -1735
1479459948  -645
1479459948  -1872
1479459948  -1200
1479459948  4610
1479459948  9536
1479459948  7076
1479459948  -3376
1479459948  -10667
1479459948  -6289
1479459948  7594
1479459948  15539
1479459948  8244
1479459948  -8636
1479459948  -17414
1479459948  -10820
1479459948  1931
1479459948  5891
1479459948  -1372
1479459948  -7795
1479459948  -2093
1479459948  10164
1479459948  16109
1479459948  9301
1479459948  -2210
1479459948  -5960
1479459948  290
1479459948  9195
1479459948  10624
1479459948  4682
1479459948  -1897
1479459948  -1699
1479459948  4492
1479459948  9791
1479459948  5708
1479459948  -8252
1479459948  -22383
1479459948  -25363
1479459948  -14232
1479459948  206
1479459948  7087
1479459948  5049
1479459948  989
1479459948  2783
1479459948  8082
1479459948  6423
1479459948  -5162
1479459948  -18797
1479459948  -21397
1479459948  -9911
1479459948  9359
1479459948  21397
1479459948  19026
1479459948  6487
1479459948  -4859
1479459948  -6460
1479459948  735
1479459948  7649
1479459948  7710
1479459948  -332
1479459948  -11776
1479459948  -22232
1479459948  -26515
1479459948  -21821
1479459948  -9770
1479459948  1729
1479459948  3438
1479459948  -5253
1479459948  -11650
1479459948  -5313
1479459948  11008
1479459948  21745
1479459948  15557
1479459948  -3287
1479459948  -18879
1479459948  -22590
1479459948  -16506
1479459948  -7865
1479459948  -1093
1479459948  4911
1479459948  8661
1479459948  8689
1479459948  6437
1479459948  5182
1479459948  6200
1479459948  5391
1479459948  619
1479459948  -5281
1479459948  -6861
1479459948  -3247
1479459948  -176
1479459948  -832
1479459948  -905
1479459948  4296
1479459948  11423
1479459948  10668
1479459948  -1630
1479459948  -15091
1479459948  -17288
1479459948  -5665
1479459948  6910
1479459948  8606
1479459948  -144
1479459948  -9064
1479459948  -12004
1479459948  -13517
1479459948  -20473
1479459948  -30466
1479459948  31804
1479459948  -25667
1479459948  -13279
1479459948  -8614
1479459948  -13912
1479459948  -21800
1479459948  -23460
1479459948  -14349
1479459948  527
1479459948  14600
1479459948  20074
1479459948  13424
1479459948  -1438
1479459948  -13884
1479459948  -14436
1479459948  -2936
1479459948  9457
1479459948  13515
1479459948  10081
1479459948  7592
1479459948  10818
1479459948  16591
1479459948  16699
1479459948  7627
1479459948  -3885
1479459948  -10120
1479459948  -7126
1479459948  2751
1479459948  11177
1479459948  13339
1479459948  8885
1479459948  4943
1479459948  5709
1479459948  8409
1479459948  6295
1479459948  -300
1479459948  -3852
1479459948  1882
1479459948  11300
1479459948  13563
1479459948  4799
1479459948  -4778
1479459948  -2988
1479459948  10246
1479459948  20337
1479459948  17348
1479459948  5232
1479459948  -4619
1479459948  -4888
1479459948  1549
1479459948  7706
1479459948  8405
1479459948  3906
1479459948  -5857
1479459948  -17948
1479459948  -26306
1479459948  -24582
1479459948  -11687
1479459948  3703
1479459948  12525
1479459948  10516
1479459948  1335
1479459948  -5936
1479459948  -6203
1479459948  -1219
1479459948  5159
1479459948  6895
1479459948  3359
1479459948  -3267
1479459948  -7577
1479459948  -6197
1479459948  -1143
1479459948  1233
1479459948  -1313
1479459948  -6331
1479459948  -7851
1479459948  -4003
1479459948  3395
1479459948  8471
1479459948  8880
1479459948  6065
1479459948  2413
1479459948  -604
1479459948  -2713
1479459948  -3236
1479459948  -1683
1479459948  829
1479459948  2226
1479459948  1713
1479459948  -105
1479459949  -1644
1479459949  -1849
1479459949  -960
1479459949  543
1479459949  1259
1479459949  2274
1479459949  1509
1479459949  333
1479459949  -756
1479459949  -1212
1479459949  -1594
1479459949  -339
1479459949  273
1479459949  892
1479459949  1160
1479459949  1148
1479459949  721
1479459949  419
1479459949  -584
1479459949  -922
1479459949  -66
1479459949  1154
1479459949  662
1479459949  185
1479459949  -590
1479459949  309
1479459949  1292
1479459949  377
1479459949  -2284
1479459949  -1183
1479459949  3884
1479459949  10760
1479459949  13541
1479459949  10376
1479459949  4772
1479459949  3797
1479459949  5826
1479459949  7324
1479459949  4654
1479459949  -554
1479459949  -4685
1479459949  -3919
1479459949  -1817
1479459949  56
1479459949  812
1479459949  1230
1479459949  985
1479459949  1416
1479459949  471
1479459949  -208
1479459949  -161
1479459949  478
1479459949  707
1479459949  71
1479459949  -741
1479459949  -762
1479459949  43
1479459949  537
1479459949  -6
1479459949  -152
1479459949  474
1479459949  2013
1479459949  2088
1479459949  -589
1479459949  -2538
1479459949  -715
1479459949  2917
1479459949  2549
1479459949  -5101
1479459949  -14355
1479459949  -15254
1479459949  -4284
1479459949  8418
1479459949  12422
1479459949  7540
1479459949  4353
1479459949  9564
1479459949  17233
1479459949  14467
1479459949  1346
1479459949  -9575
1479459949  -8065
1479459949  1014
1479459949  4569
1479459949  -2498
1479459949  -9165
1479459949  -5472
1479459949  6020
1479459949  12457
1479459949  6638
1479459949  -6531
1479459949  -15075
1479459949  -13765
1479459949  -9438
1479459949  -10436
1479459949  -19512
1479459949  -29363
1479459949  -29903
1479459949  -16528
1479459949  1779
1479459949  13956
1479459949  12868
1479459949  6433
1479459949  4658
1479459949  9694
1479459949  12868
1479459949  9322
1479459949  2189
1479459949  -643
1479459949  994
1479459949  245
1479459949  -6633
1479459949  -13640
1479459949  -12710
1479459949  -4021
1479459949  4580
1479459949  7933
1479459949  9348
1479459949  14038
1479459949  21518
1479459949  22974
1479459949  13202
1479459949  -2455
1479459949  -11212
1479459949  -7956
1479459949  971
1479459949  805
1479459949  -11821
1479459949  -24535
1479459949  -21045
1479459949  1152
1479459949  22899
1479459949  24919
1479459949  7492
1479459949  -10685
1479459949  -14566
1479459949  -5133
1479459949  2510
1479459949  2490
1479459949  -5
1479459949  1029
1479459949  2479
1479459949  1708
1479459949  1160
1479459949  8052
1479459949  18478
1479459949  20601
1479459949  8722
1479459949  -6773
1479459949  -11829
1479459949  -3130
1479459949  9004
1479459949  14687
1479459949  13726
1479459949  12398
1479459949  13710
1479459949  13569
1479459949  10028
1479459949  6614
1479459949  7964
1479459949  13761
1479459949  18907
1479459949  18713
1479459949  14892
1479459949  11456
1479459949  9890
1479459949  8961
1479459949  8033
1479459949  8781
1479459949  12518
1479459949  16651
1479459949  16598
1479459949  13129
1479459949  10248
1479459949  11238
1479459949  13724
1479459949  12022
1479459949  7039
1479459949  6464
1479459949  13827
1479459949  23233
1479459949  22226
1479459949  9741
1479459949  -4432
1479459949  -9146
1479459949  -6503
1479459949  -4688
1479459949  -8901
1479459949  -11354
1479459949  -4320
1479459949  8023
1479459949  11220
1479459949  183
1479459949  -17258
1479459949  -25188
1479459949  -17076
1479459949  168
1479459949  13308
1479459949  14397
1479459949  4990
1479459949  -6358
1479459949  -12375
1479459949  -12236
1479459949  -7078
1479459949  -245
1479459949  6797
1479459949  11012
1479459949  9117
1479459949  2201
1479459949  -5182
1479459949  -7492
1479459949  -4443
1479459949  -3475
1479459949  -8055
1479459949  -15956
1479459949  -18205
1479459949  -10892
1479459949  1576
1479459949  9734
1479459949  7194
1479459949  -886
1479459949  -4643
1479459949  -5
1479459949  3278
1479459949  -2685
1479459949  -15299
1479459949  -22020
1479459949  -15584
1479459949  -1338
1479459949  6296
1479459949  2951
1479459949  -5000
1479459949  -8587
1479459949  -6995
1479459949  -5915
1479459949  -7220
1479459949  -6937
1479459949  -1030
1479459949  10333
1479459949  20940
1479459949  24189
1479459949  18614
1479459949  6847
1479459949  -3902
1479459949  -5755
1479459949  3324
1479459949  15919
1479459949  21779
1479459949  17840
1479459949  11767
1479459949  12038
1479459949  19208
1479459949  22649
1479459949  15471
1479459949  -40
1479459949  -10620
1479459949  -5490
1479459949  12099
1479459949  25754
1479459949  19934
1479459949  -2957
1479459949  -23608
1479459949  -23362
1479459949  -3625
1479459949  16189
1479459949  19640
1479459949  11699
1479459949  9403
1479459949  18708
1479459949  25760
1479459949  15449
1479459949  -8754
1479459949  -28121
1479459949  -29566
1479459949  -18053
1479459949  -10416
1479459949  -13627
1479459949  -22285
1479459949  -27206
1479459949  -26317
1479459949  -24443
1479459949  -25059
1479459949  -26775
1479459949  -26671
1479459949  -24695
1479459949  -23045
1479459949  -22803
1479459949  -23231
1479459949  -23254
1479459949  -23042
1479459949  -23743
1479459949  -25066
1479459949  -26411
1479459949  -27096
1479459949  -26843
1479459949  -25813
1479459949  -24446
1479459949  -23315
1479459949  -22861
1479459949  -23199
1479459949  -24064
1479459949  -24811
1479459949  -25158
1479459949  -25154
1479459949  -25006
1479459949  -24513
1479459949  -23642
1479459949  -23002
1479459949  -23282
1479459949  -23899
1479459949  -22543
1479459949  -19159
1479459949  -13824
1479459949  -9925
1479459949  -8268
1479459949  -7410
1479459949  -5708
1479459949  -3833
1479459949  -1692
1479459949  0
1479459949  2495
1479459949  5722
1479459949  7719
1479459949  6669
1479459949  5342
1479459949  5641
1479459949  7361
1479459949  7218
1479459949  1902
1479459949  -5501
1479459949  -10989
1479459949  -11742
1479459949  -8803
1479459949  -4308
1479459949  124
1479459949  3311
1479459949  4428
1479459949  3822
1479459949  3229
1479459949  3270
1479459949  2028
1479459949  -2256
1479459949  -7301
1479459949  -8855
1479459949  -4797
1479459949  -2248
1479459949  -6815
1479459949  -17950
1479459949  -22178
1479459949  -14975
1479459949  -2718
1479459949  -1186
1479459949  -15452
1479459949  -31809
1479459949  -30467
1479459949  -10373
1479459949  12567
1479459949  19351
1479459949  9662
1479459949  -2605
1479459949  -5957
1479459949  -3784
1479459949  -2945
1479459949  -4339
1479459949  -3798
1479459949  -434
1479459949  -2565
1479459949  -11122
1479459949  -17887
1479459949  -12918
1479459949  955
1479459949  10131
1479459949  5877
1479459949  -5594
1479459949  -11309
1479459949  -6736
1479459949  1891
1479459949  6591
1479459949  5952
1479459949  2081
1479459949  -1228
1479459949  -3716
1479459949  -3671
1479459949  -3718
1479459949  -5748
1479459949  -12356
1479459949  -20009
1479459949  -25945
1479459949  -29695
1479459949  -31621
1479459949  -28362
1479459949  -15413
1479459949  5895
1479459949  23410
1479459949  26675
1479459949  17008
1479459949  6741
1479459949  3997
1479459949  4009
1479459949  -1317
1479459949  -10205
1479459949  -13938
1479459949  -10137
1479459949  -6544
1479459949  -13399
1479459949  -27573
1479459949  30285
1479459949  -27543
1479459949  -10686
1479459949  631
1479459949  -2064
1479459949  -13796
1479459949  -22372
1479459949  -20171
1479459949  -9117
1479459949  1336
1479459949  2705
1479459949  -6736
1479459949  -20172
1479459949  -27956
1479459949  -25951
1479459949  -19254
1479459949  -15570
1479459949  -17208
1479459949  -20648
1479459949  -23122
1479459949  -26434
1479459949  -31938
1479459949  31684
1479459949  -24490
1479459949  -5480
1479459949  8885
1479459949  4985
1479459949  -14453
1479459949  -31742
1479459949  -32716
1479459949  -20819
1479459949  -10443
1479459949  -8921
1479459949  -11148
1479459949  -9970
1479459949  -6636
1479459949  -7703
1479459949  -14345
1479459949  -19589
1479459949  -17696
1479459949  -12699
1479459949  -13551
1479459949  -22205
1479459949  -30198
1479459949  -28459
1479459949  -19002
1479459949  -13016
1479459949  -17185
1479459949  -26037
1479459949  -28495
1479459949  -22008
1479459949  -15313
1479459949  -17170
1479459949  -25173
1479459949  -29018
1479459949  -24124
1479459949  -16972
1479459949  -17889
1479459949  -25429
1479459949  -29137
1479459949  -23536
1479459949  -15883
1479459949  -16913
1479459949  -25842
1479459949  -31288
1479459949  -25174
1479459949  -13596
1479459949  -9226
1479459949  -15738
1479459949  -24866
1479459949  -24997
1479459949  -16050
1479459949  -6778
1479459949  -2357
1479459949  -217
1479459949  4061
1479459949  7340
1479459949  1553
1479459949  -15001
1479459949  -30088
1479459949  -30810
1479459950  -15254
1479459950  4182
1479459950  13996
1479459950  11564
1479459950  5979
1479459950  2954
1479459950  1765
1479459950  -844
1479459950  -2855
1479459950  883
1479459950  9392
1479459950  16779
1479459950  14528
1479459950  5416
1479459950  -4276
1479459950  -7976
1479459950  -4476
1479459950  1678
1479459950  4843
1479459950  2291
1479459950  -3425
1479459950  -5152
1479459950  -1018
1479459950  4366
1479459950  3044
1479459950  -4710
1479459950  -11624
1479459950  -9529
1479459950  -1244
1479459950  2130
1479459950  -2861
1479459950  -5356
1479459950  3067
1479459950  16742
1479459950  20092
1479459950  5306
1479459950  -14323
1479459950  -19940
1479459950  -4828
1479459950  16398
1479459950  24488
1479459950  14933
1479459950  1389
1479459950  -1517
1479459950  8477
1479459950  18220
1479459950  14529
1479459950  -450
1479459950  -12871
1479459950  -9517
1479459950  4392
1479459950  15076
1479459950  11403
1479459950  -983
1479459950  -7983
1479459950  -3889
1479459950  3012
1479459950  3295
1479459950  -4945
1479459950  -10096
1479459950  -4479
1479459950  7382
1479459950  13124
1479459950  7412
1479459950  -3544
1479459950  -9389
1479459950  -8327
1479459950  -4879
1479459950  -5504
1479459950  -4513
1479459950  5007
1479459950  20754
1479459950  30194
1479459950  22987
1479459950  6193
1479459950  -6058
1479459950  -4180
1479459950  6181
1479459950  10313
1479459950  2736
1479459950  -8857
1479459950  -13785
1479459950  -10576
1479459950  -4794
1479459950  -1469
1479459950  469
1479459950  3460
1479459950  8183
1479459950  8087
1479459950  2337
1479459950  -4269
1479459950  -5059
1479459950  1098
1479459950  8322
1479459950  8960
1479459950  2787
1479459950  -6088
1479459950  -12630
1479459950  -13063
1479459950  -6639
1479459950  4497
1479459950  14442
1479459950  17156
1479459950  13134
1479459950  7574
1479459950  7046
1479459950  9454
1479459950  10645
1479459950  8410
1479459950  6753
1479459950  9065
1479459950  11577
1479459950  11310
1479459950  9071
1479459950  11420
1479459950  18011
1479459950  21312
1479459950  15382
1479459950  2673
1479459950  -6235
1479459950  -8041
1479459950  -6998
1479459950  -8395
1479459950  -9921
1479459950  -8001
1479459950  521
1479459950  9908
1479459950  14006
1479459950  10166
1479459950  996
1479459950  -7267
1479459950  -8152
1479459950  1879
1479459950  15005
1479459950  19998
1479459950  11236
1479459950  -2015
1479459950  -5427
1479459950  5938
1479459950  20122
1479459950  21519
1479459950  7261
1479459950  -9318
1479459950  -13451
1479459950  -6928
1479459950  -2882
1479459950  -9303
1479459950  -18402
1479459950  -15858
1479459950  -544
1479459950  15363
1479459950  17517
1479459950  8475
1479459950  614
1479459950  2990
1479459950  11979
1479459950  17983
1479459950  16831
1479459950  12615
1479459950  10926
1479459950  12276
1479459950  13441
1479459950  12039
1479459950  10692
1479459950  11498
1479459950  12760
1479459950  12746
1479459950  11393
1479459950  11528
1479459950  12011
1479459950  13010
1479459950  13555
1479459950  13896
1479459950  13491
1479459950  12965
1479459950  11974
1479459950  11667
1479459950  11812
1479459950  12565
1479459950  12968
1479459950  13467
1479459950  13441
1479459950  13893
1479459950  12767
1479459950  11215
1479459950  11035
1479459950  12819
1479459950  13724
1479459950  11675
1479459950  10042
1479459950  11553
1479459950  14913
1479459950  15485
1479459950  11719
1479459950  8943
1479459950  11450
1479459950  17967
1479459950  18221
1479459950  7771
1479459950  -6781
1479459950  -12341
1479459950  -5020
1479459950  7432
1479459950  10694
1479459950  2251
1479459950  -8646
1479459950  -10838
1479459950  -3932
1479459950  5554
1479459950  8211
1479459950  3028
1479459950  -4904
1479459950  -8429
1479459950  -5497
1479459950  -290
1479459950  2806
1479459950  1750
1479459950  -876
1479459950  -1976
1479459950  -2179
1479459950  -1445
1479459950  1296
1479459950  3980
1479459950  4569
1479459950  1791
1479459950  -978
1479459950  -1679
1479459950  -400
1479459950  -1782
1479459950  -8016
1479459950  -14165
1479459950  -13706
1479459950  -5108
1479459950  4090
1479459950  10017
1479459950  10045
1479459950  5517
1479459950  -1866
1479459950  -7366
1479459950  -5848
1479459950  5579
1479459950  20402
1479459950  23807
1479459950  9766
1479459950  -10554
1479459950  -20081
1479459950  -11284
1479459950  5630
1479459950  12251
1479459950  3504
1479459950  -10330
1479459950  -14600
1479459950  -7801
1479459950  1851
1479459950  4678
1479459950  -1393
1479459950  -9513
1479459950  -11450
1479459950  -6756
1479459950  1245
1479459950  6669
1479459950  7025
1479459950  3597
1479459950  -692
1479459950  -3482
1479459950  -4324
1479459950  -2181
1479459950  -149
1479459950  -1005
1479459950  -6111
1479459950  -11536
1479459950  -13837
1479459950  -9368
1479459950  -3264
1479459950  -642
1479459950  -1357
1479459950  -659
1479459950  4112
1479459950  8852
1479459950  7254
1479459950  -827
1479459950  -8478
1479459950  -9140
1479459950  -3335
1479459950  2696
1479459950  4577
1479459950  3809
1479459950  3726
1479459950  4647
1479459950  3607
1479459950  556
1479459950  -3776
1479459950  -5326
1479459950  -3721
1479459950  -870
1479459950  1659
1479459950  3151
1479459950  3701
1479459950  3466
1479459950  2323
1479459950  -61
1479459950  -2577
1479459950  -2518
1479459950  -1715
1479459950  -60
1479459950  412
1479459950  342
1479459950  1200
1479459950  3861
1479459950  7540
1479459950  10937
1479459950  14270
1479459950  15969
1479459950  13585
1479459950  7044
1479459950  -1344
1479459950  -5093
1479459950  -1918
1479459950  4577
1479459950  7976
1479459950  5726
1479459950  -1649
1479459950  -9899
1479459950  -15910
1479459950  -16748
1479459950  -10397
1479459950  1455
1479459950  9437
1479459950  7537
1479459950  -5814
1479459950  -22151
1479459950  -31243
1479459950  -29100
1479459950  -20417
1479459950  -11282
1479459950  -7557
1479459950  -9427
1479459950  -12971
1479459950  -13726
1479459950  -10844
1479459950  -4375
1479459950  -577
1479459950  -1049
1479459950  -3177
1479459950  -2999
1479459950  388
1479459950  3633
1479459950  3556
1479459950  -187
1479459950  -4374
1479459950  -6001
1479459950  -5147
1479459950  -1902
1479459950  1489
1479459950  4193
1479459950  5163
1479459950  3904
1479459950  465
1479459950  -2546
1479459950  -4525
1479459950  -3946
1479459950  -1679
1479459950  810
1479459950  2202
1479459950  3010
1479459950  2914
1479459950  1488
1479459950  -604
1479459950  -2405
1479459950  -2528
1479459950  -290
1479459950  976
1479459950  -36
1479459950  -889
1479459950  18
1479459950  2133
1479459950  2497
1479459950  -1364
1479459950  -5292
1479459950  -3052
1479459950  4186
1479459950  9983
1479459950  9487
1479459950  3254
1479459950  -2534
1479459950  -4051
1479459950  -4760
1479459950  -7654
1479459950  -10682
1479459950  -11047
1479459950  -6946
1479459950  -1376
1479459950  2849
1479459950  5129
1479459950  6867
1479459950  6295
1479459950  3783
1479459950  137
1479459950  -2441
1479459950  -4311
1479459950  -5722
1479459950  -5000
1479459950  -1037
1479459950  5098
1479459950  6555
1479459950  1086
1479459950  -7478
1479459950  -11258
1479459950  -8605
1479459950  -4390
1479459950  -5037
1479459950  -6635
1479459950  -3925
1479459950  2393
1479459950  7038
1479459950  6631
1479459950  4939
1479459950  8381
1479459950  14501
1479459950  14916
1479459950  6918
1479459950  -998
1479459950  -508
1479459950  7661
1479459950  14369
1479459950  12308
1479459950  6143
1479459950  3514
1479459950  6464
1479459950  9666
1479459950  7998
1479459950  1440
1479459950  -4423
1479459950  -6257
1479459950  -5283
1479459950  -3346
1479459950  -2293
1479459950  -1686
1479459950  32
1479459950  2634
1479459950  4474
1479459950  4157
1479459950  445
1479459950  -4803
1479459950  -10436
1479459950  -12914
1479459950  -11384
1479459950  -5330
1479459950  1831
1479459950  7075
1479459950  9809
1479459950  7986
1479459950  3771
1479459950  -430
1479459950  -3531
1479459950  -3486
1479459950  -999
1479459950  2463
1479459950  5509
1479459950  6670
1479459950  4397
1479459950  -3286
1479459950  -12715
1479459950  -14216
1479459950  -2121
1479459950  17442
1479459950  27282
1479459950  16116
1479459950  -7359
1479459950  -22619
1479459950  -17772
1479459950  -1640
1479459950  5454
1479459950  -314
1479459950  -8306
1479459950  -6838
1479459950  1886
1479459950  5672
1479459950  -1014
1479459950  -11240
1479459950  -14211
1479459950  -8878
1479459950  -2394
1479459950  1189
1479459950  2128
1479459950  1681
1479459950  204
1479459950  -5286
1479459950  -12059
1479459950  -14863
1479459950  -10474
1479459950  -802
1479459950  6762
1479459950  5279
1479459950  -4193
1479459950  -13781
1479459950  -15233
1479459950  -7190
1479459950  4899
1479459950  12392
1479459950  10572
1479459950  3119
1479459950  -4350
1479459950  -8550
1479459950  -7810
1479459950  -3934
1479459950  1375
1479459950  5848
1479459950  7167
1479459950  4836
1479459950  245
1479459950  -3847
1479459950  -5331
1479459950  -4106
1479459950  -1120
1479459950  1330
1479459950  3615
1479459950  3277
1479459950  2228
1479459950  117
1479459950  -1352
1479459950  -2362
1479459950  -1601
1479459950  -446
1479459950  956
1479459950  1086
1479459950  1042
1479459951  470
1479459951  601
1479459951  -36
1479459951  -788
1479459951  -1477
1479459951  67
1479459951  2515
1479459951  4758
1479459951  3945
1479459951  1482
1479459951  -721
1479459951  -1464
1479459951  -506
1479459951  1114
1479459951  1125
1479459951  -830
1479459951  -2356
1479459951  -1973
1479459951  669
1479459951  3546
1479459951  2710
1479459951  -482
1479459951  -2452
1479459951  390
1479459951  3396
1479459951  1039
1479459951  -8171
1479459951  -14109
1479459951  -9147
1479459951  4213
1479459951  13142
1479459951  8310
1479459951  -3726
1479459951  -9064
1479459951  460
1479459951  17220
1479459951  24967
1479459951  15786
1479459951  -3315
1479459951  -16160
1479459951  -12269
1479459951  4310
1479459951  17136
1479459951  15607
1479459951  3518
1479459951  -5275
1479459951  -4200
1479459951  1188
1479459951  1616
1479459951  -1296
1479459951  2785
1479459951  16251
1479459951  25648
1479459951  15004
1479459951  -10274
1479459951  -25223
1479459951  -12523
1479459951  15589
1479459951  28977
1479459951  12162
1479459951  -18336
1479459951  31949
1479459951  -24629
1479459951  -6700
1479459951  98
1479459951  -3680
1479459951  -4941
1479459951  1934
1479459951  10279
1479459951  7467
1479459951  -5124
1479459951  -15108
1479459951  -11293
1479459951  3576
1479459951  16232
1479459951  15192
1479459951  1600
1479459951  -12639
1479459951  -15963
1479459951  -8398
1479459951  1637
1479459951  5761
1479459951  2457
1479459951  -4021
1479459951  -9992
1479459951  -13692
1479459951  -15407
1479459951  -14848
1479459951  -11078
1479459951  -3000
1479459951  8620
1479459951  19813
1479459951  24848
1479459951  20061
1479459951  8555
1479459951  -2838
1479459951  -4428
1479459951  2781
1479459951  13194
1479459951  20373
1479459951  20762
1479459951  16925
1479459951  10953
1479459951  6320
1479459951  5785
1479459951  9041
1479459951  12923
1479459951  13878
1479459951  12830
1479459951  14389
1479459951  18291
1479459951  17599
1479459951  7039
1479459951  -8276
1479459951  -15245
1479459951  -8043
1479459951  4868
1479459951  8179
1479459951  -4200
1479459951  -22158
1479459951  -32365
1479459951  -28460
1479459951  -15582
1479459951  874
1479459951  16609
1479459951  29361
1479459951  32348
1479459951  20730
1479459951  -1007
1479459951  -18349
1479459951  -20264
1479459951  -8138
1479459951  4158
1479459951  3477
1479459951  -5692
1479459951  -11854
1479459951  -8424
1479459951  -110
1479459951  4987
1479459951  3945
1479459951  146
1479459951  -2792
1479459951  -5400
1479459951  -7486
1479459951  -5887
1479459951  1385
1479459951  10119
1479459951  12718
1479459951  6559
1479459951  -2214
1479459951  -5861
1479459951  -5440
1479459951  -9408
1479459951  -21370
1479459951  32149
1479459951  -32233
1479459951  -17940
1479459951  -2333
1479459951  -255
1479459951  -10124
1479459951  -20597
1479459951  -18330
1479459951  -7761
1479459951  -1549
1479459951  -6756
1479459951  -19152
1479459951  -28550
1479459951  -29123
1479459951  -26729
1479459951  -29322
1479459951  30990
1479459951  30107
1479459951  -23365
1479459951  -2774
1479459951  14127
1479459951  17501
1479459951  9507
1479459951  -296
1479459951  -5936
1479459951  -7972
1479459951  -10022
1479459951  -11623
1479459951  -9858
1479459951  -5436
1479459951  -1504
1479459951  -1157
1479459951  -2090
1479459951  -3586
1479459951  -5336
1479459951  -8960
1479459951  -11536
1479459951  -8839
1479459951  -749
1479459951  7720
1479459951  12814
1479459951  12482
1479459951  6931
1479459951  -2829
1479459951  -15014
1479459951  -23154
1479459951  -18492
1479459951  -4535
1479459951  9200
1479459951  12648
1479459951  6056
1479459951  -2455
1479459951  -3323
1479459951  915
1479459951  5978
1479459951  7107
1479459951  5491
1479459951  2359
1479459951  -460
1479459951  -3739
1479459951  -6160
1479459951  -5961
1479459951  -2931
1479459951  938
1479459951  4361
1479459951  4986
1479459951  3866
1479459951  1204
1479459951  -768
1479459951  -2268
1479459951  -2412
1479459951  -2470
1479459951  -1419
1479459951  584
1479459951  2445
1479459951  2529
1479459951  1343
1479459951  -364
1479459951  -39
1479459951  1115
1479459951  537
1479459951  -2392
1479459951  -2101
1479459951  2089
1479459951  7590
1479459951  7226
1479459951  -992
1479459951  -10758
1479459951  -13627
1479459951  -7419
1479459951  2419
1479459951  9903
1479459951  13665
1479459951  15798
1479459951  17644
1479459951  15490
1479459951  10240
1479459951  3665
1479459951  531
1479459951  599
1479459951  2590
1479459951  3018
1479459951  1722
1479459951  -1883
1479459951  -5664
1479459951  -7785
1479459951  -5119
1479459951  2494
1479459951  9516
1479459951  11249
1479459951  8127
1479459951  3291
1479459951  235
1479459951  -2753
1479459951  -7039
1479459951  -10185
1479459951  -7736
1479459951  -173
1479459951  7018
1479459951  7523
1479459951  3780
1479459951  1704
1479459951  3361
1479459951  5339
1479459951  3370
1479459951  1610
1479459951  2336
1479459951  5144
1479459951  2953
1479459951  -8137
1479459951  -20494
1479459951  -24689
1479459951  -18078
1479459951  -7228
1479459951  999
1479459951  5933
1479459951  10391
1479459951  16468
1479459951  21125
1479459951  22816
1479459951  20841
1479459951  13797
1479459951  2559
1479459951  -7438
1479459951  -11447
1479459951  -7383
1479459951  -320
1479459951  3119
1479459951  1215
1479459951  -3865
1479459951  -8552
1479459951  -11197
1479459951  -10660
1479459951  -6694
1479459951  -229
1479459951  3004
1479459951  -1535
1479459951  -11461
1479459951  -18417
1479459951  -15253
1479459951  -5430
1479459951  4728
1479459951  7888
1479459951  6682
1479459951  3331
1479459951  -2461
1479459951  -10245
1479459951  -17601
1479459951  -19001
1479459951  -13687
1479459951  -9239
1479459951  -10623
1479459951  -16396
1479459951  -17507
1479459951  -11294
1479459951  -4098
1479459951  -2663
1479459951  -5847
1479459951  -5509
1479459951  1435
1479459951  6486
1479459951  1832
1479459951  -9177
1479459951  -15480
1479459951  -12814
1479459951  -8045
1479459951  -10969
1479459951  -19941
1479459951  -22268
1479459951  -11046
1479459951  6284
1479459951  16238
1479459951  12365
1479459951  590
1479459951  -8577
1479459951  -9494
1479459951  -3406
1479459951  8418
1479459951  19962
1479459951  26378
1479459951  22885
1479459951  12445
1479459951  3880
1479459951  3596
1479459951  8809
1479459951  10124
1479459951  3991
1479459951  -3626
1479459951  -2604
1479459951  5207
1479459951  9633
1479459951  3531
1479459951  -5378
1479459951  -8422
1479459951  -4914
1479459951  -5457
1479459951  -15008
1479459951  -23161
1479459951  -15720
1479459951  6360
1479459951  24115
1479459951  22026
1479459951  2144
1479459951  -16328
1479459951  -17463
1479459951  -2312
1479459951  14511
1479459951  22367
1479459951  17424
1479459951  8233
1479459951  4529
1479459951  9610
1479459951  18196
1479459951  22820
1479459951  16316
1479459951  2711
1479459951  -9035
1479459951  -12868
1479459951  -9885
1479459951  -4435
1479459951  -1083
1479459951  1252
1479459951  2586
1479459951  2781
1479459951  2269
1479459951  1022
1479459951  698
1479459951  1058
1479459951  1176
1479459951  916
1479459951  -456
1479459951  -1958
1479459951  -3151
1479459951  -2704
1479459951  -532
1479459951  1570
1479459951  899
1479459951  -1641
1479459951  -4249
1479459951  -3495
1479459951  -1370
1479459951  -939
1479459951  -6187
1479459951  -13737
1479459951  -17896
1479459951  -12676
1479459951  -1048
1479459951  8467
1479459951  6963
1479459951  -5152
1479459951  -20667
1479459951  -28434
1479459951  -25198
1479459951  -17257
1479459951  -13975
1479459951  -18729
1479459951  -23889
1479459951  -18921
1479459951  -3248
1479459951  13294
1479459951  17782
1479459951  7878
1479459951  -3497
1479459951  -3951
1479459951  7677
1479459951  20186
1479459951  21814
1479459951  12705
1479459951  -932
1479459951  -10287
1479459951  -14126
1479459951  -14003
1479459951  -10465
1479459951  -3039
1479459951  5823
1479459951  12539
1479459951  11610
1479459951  4403
1479459951  -4562
1479459951  -8160
1479459951  -4778
1479459951  340
1479459951  1744
1479459951  -3333
1479459951  -10950
1479459951  -14038
1479459951  -8982
1479459951  721
1479459951  9421
1479459951  11117
1479459951  6197
1479459951  -1397
1479459951  -5381
1479459951  -4990
1479459951  -855
1479459951  420
1479459951  -4007
1479459951  -11297
1479459951  -13543
1479459951  -8773
1479459951  1569
1479459951  9525
1479459951  11235
1479459951  8045
1479459951  3471
1479459951  357
1479459951  -2091
1479459951  -2635
1479459951  -335
1479459951  3579
1479459951  5563
1479459951  3643
1479459951  -1508
1479459951  -4326
1479459951  -3294
1479459951  -448
1479459951  -556
1479459951  -2529
1479459951  784
1479459951  11722
1479459951  23720
1479459951  25381
1479459951  11269
1479459951  -8791
1479459951  -18580
1479459951  -13965
1479459951  -4899
1479459951  -4264
1479459951  -15174
1479459951  -26970
1479459951  -26140
1479459951  -13631
1479459951  2647
1479459951  11695
1479459951  10537
1479459951  3564
1479459951  -1680
1479459952  -2941
1479459952  -709
1479459952  1526
1479459952  1975
1479459952  1566
1479459952  1238
1479459952  -449
1479459952  -4618
1479459952  -8580
1479459952  -6311
1479459952  3689
1479459952  13331
1479459952  10578
1479459952  -6963
1479459952  -25303
1479459952  -28262
1479459952  -11315
1479459952  11552
1479459952  22133
1479459952  14766
1479459952  -531
1479459952  -13026
1479459952  -18488
1479459952  -20784
1479459952  -23583
1479459952  -26343
1479459952  -26126
1479459952  -24261
1479459952  -22792
1479459952  -22897
1479459952  -24561
1479459952  -24876
1479459952  -23960
1479459952  -22958
1479459952  -22809
1479459952  -23394
1479459952  -24145
1479459952  -23268
1479459952  -22593
1479459952  -23373
1479459952  -25298
1479459952  -25631
1479459952  -23051
1479459952  -18121
1479459952  -15251
1479459952  -14588
1479459952  -11714
1479459952  -2489
1479459952  9628
1479459952  16772
1479459952  11505
1479459952  -2626
1479459952  -14642
1479459952  -15960
1479459952  -7276
1479459952  3884
1479459952  9007
1479459952  7360
1479459952  2059
1479459952  -3847
1479459952  -7842
1479459952  -8046
1479459952  -3665
1479459952  2750
1479459952  7597
1479459952  7412
1479459952  4167
1479459952  188
1479459952  -2981
1479459952  -5940
1479459952  -6501
1479459952  -3669
1479459952  -292
1479459952  1011
1479459952  -2688
1479459952  -5741
1479459952  -3334
1479459952  3116
1479459952  7173
1479459952  9155
1479459952  11333
1479459952  16193
1479459952  16517
1479459952  5113
1479459952  -13976
1479459952  -23932
1479459952  -18287
1479459952  -4160
1479459952  1715
1479459952  -4602
1479459952  -10996
1479459952  -6042
1479459952  5294
1479459952  10170
1479459952  2330
1479459952  -8673
1479459952  -10326
1479459952  -3261
1479459952  2358
1479459952  419
1479459952  -3688
1479459952  -3645
1479459952  18
1479459952  -1725
1479459952  -11525
1479459952  -19437
1479459952  -15197
1479459952  -964
1479459952  9316
1479459952  5455
1479459952  -11078
1479459952  -25601
1479459952  -30880
1479459952  -28723
1479459952  -25092
1479459952  -21434
1479459952  -18380
1479459952  -16327
1479459952  -17687
1479459952  -21047
1479459952  -21543
1479459952  -14679
1479459952  -3435
1479459952  7906
1479459952  13647
1479459952  11664
1479459952  2594
1479459952  -8191
1479459952  -11889
1479459952  -3974
1479459952  9089
1479459952  13303
1479459952  962
1479459952  -20039
1479459952  30783
1479459952  30350
1479459952  -26880
1479459952  -18419
1479459952  -16028
1479459952  -18400
1479459952  -21390
1479459952  -20740
1479459952  -13634
1479459952  -133
1479459952  11920
1479459952  12537
1479459952  240
1479459952  -13278
1479459952  -17511
1479459952  -12472
1479459952  -10024
1479459952  -16866
1479459952  -24608
1479459952  -20173
1479459952  -3058
1479459952  12195
1479459952  14822
1479459952  7510
1479459952  3416
1479459952  8437
1479459952  15039
1479459952  11792
1479459952  -1129
1479459952  -16070
1479459952  -25057
1479459952  -27611
1479459952  -26512
1479459952  -24480
1479459952  -20450
1479459952  -16325
1479459952  -13923
1479459952  -11908
1479459952  -7483
1479459952  85
1479459952  7287
1479459952  9719
1479459952  6911
1479459952  1571
1479459952  -1741
1479459952  -2832
1479459952  -3537
1479459952  -2960
1479459952  -821
1479459952  879
1479459952  1098
1479459952  -95
1479459952  -417
1479459952  984
1479459952  2164
1479459952  1280
1479459952  -412
1479459952  -592
1479459952  1666
1479459952  2104
1479459952  -1036
1479459952  -6317
1479459952  -10056
1479459952  -10065
1479459952  -5981
1479459952  -1020
1479459952  3204
1479459952  4007
1479459952  -528
1479459952  -9014
1479459952  -15155
1479459952  -12720
1479459952  -1516
1479459952  12196
1479459952  20949
1479459952  21201
1479459952  14196
1479459952  1972
1479459952  -13281
1479459952  -26819
1479459952  -32308
1479459952  -27028
1479459952  -16281
1479459952  -9461
1479459952  -10817
1479459952  -16663
1479459952  -17642
1479459952  -11370
1479459952  -1045
1479459952  7039
1479459952  10198
1479459952  6711
1479459952  -1451
1479459952  -10260
1479459952  -13843
1479459952  -9268
1479459952  1390
1479459952  8436
1479459952  5474
1479459952  -4818
1479459952  -12952
1479459952  -12410
1479459952  -5851
1479459952  1390
1479459952  4653
1479459952  4929
1479459952  3715
1479459952  2234
1479459952  -725
1479459952  -1677
1479459952  -913
1479459952  141
1479459952  -468
1479459952  -797
1479459952  -51
1479459952  3196
1479459952  3443
1479459952  -2411
1479459952  -10490
1479459952  -12954
1479459952  -5463
1479459952  7564
1479459952  16873
1479459952  16997
1479459952  10299
1479459952  3445
1479459952  1523
1479459952  2037
1479459952  3596
1479459952  2856
1479459952  340
1479459952  -2064
1479459952  -814
1479459952  4074
1479459952  10811
1479459952  15689
1479459952  13713
1479459952  6006
1479459952  -3492
1479459952  -6461
1479459952  -810
1479459952  9288
1479459952  13636
1479459952  6145
1479459952  -5540
1479459952  -8287
1479459952  2350
1479459952  17366
1479459952  21965
1479459952  12647
1479459952  -889
1479459952  -5366
1479459952  -2974
1479459952  -3021
1479459952  -7506
1479459952  -8388
1479459952  2877
1479459952  18457
1479459952  21210
1479459952  8108
1479459952  -7125
1479459952  -6394
1479459952  11054
1479459952  27844
1479459952  28407
1479459952  12485
1479459952  -4591
1479459952  -10984
1479459952  -7235
1479459952  -2181
1479459952  -2272
1479459952  -5377
1479459952  -6640
1479459952  -1998
1479459952  3774
1479459952  4725
1479459952  -761
1479459952  -5845
1479459952  -2911
1479459952  6325
1479459952  12373
1479459952  6806
1479459952  -5114
1479459952  -13103
1479459952  -12951
1479459952  -10509
1479459952  -12498
1479459952  -16228
1479459952  -15682
1479459952  -9309
1479459952  -2795
1479459952  -2917
1479459952  -5845
1479459952  -5484
1479459952  -253
1479459952  2845
1479459952  -2936
1479459952  -13742
1479459952  -20726
1479459952  -18499
1479459952  -9716
1479459952  -1527
1479459952  1205
1479459952  -975
1479459952  -4417
1479459952  -6570
1479459952  -7496
1479459952  -8674
1479459952  -10268
1479459952  -10460
1479459952  -7065
1479459952  -209
1479459952  6595
1479459952  8530
1479459952  3075
1479459952  -7788
1479459952  -18746
1479459952  -24239
1479459952  -21691
1479459952  -12801
1479459952  -1907
1479459952  6208
1479459952  8768
1479459952  5682
1479459952  -1143
1479459952  -8755
1479459952  -14313
1479459952  -15624
1479459952  -12083
1479459952  -5537
1479459952  506
1479459952  3170
1479459952  2056
1479459952  -1058
1479459952  -4153
1479459952  -6280
1479459952  -7290
1479459952  -7013
1479459952  -5281
1479459952  -2729
1479459952  -817
1479459952  -619
1479459952  -1803
1479459952  -3004
1479459952  -3305
1479459952  -3021
1479459952  -2934
1479459952  -3153
1479459952  -3066
1479459952  -2324
1479459952  -1477
1479459952  -1339
1479459952  -1948
1479459952  -2501
1479459952  -2372
1479459952  -1868
1479459952  -1767
1479459952  -2277
1479459952  -2751
1479459952  -2550
1479459952  -1915
1479459952  -1668
1479459952  -2159
1479459952  -2785
1479459952  -2751
1479459952  -2088
1479459952  -1598
1479459952  -1845
1479459952  -2424
1479459952  -2493
1479459952  -1874
1479459952  -1243
1479459952  -1257
1479459952  -1725
1479459952  -1949
1479459952  -1677
1479459952  -1405
1479459952  -1622
1479459952  -2123
1479459952  -2264
1479459952  -1870
1479459952  -1444
1479459952  -1473
1479459952  -1797
1479459952  -1876
1479459952  -1602
1479459952  -1413
1479459952  -1614
1479459952  -1887
1479459952  -1702
1479459952  -1145
1479459952  -856
1479459952  -1181
1479459952  -1633
1479459952  -1463
1479459952  -660
1479459952  -16
1479459952  -154
1479459952  -724
1479459952  -824
1479459952  -156
1479459952  582
1479459952  572
1479459952  -136
1479459952  -725
1479459952  -692
1479459952  -441
1479459952  -705
1479459952  -1555
1479459952  -2295
1479459952  -2397
1479459952  -2152
1479459952  -2268
1479459952  -2923
1479459952  -3515
1479459952  -3462
1479459952  -2940
1479459952  -2601
1479459952  -2733
1479459952  -2917
1479459952  -2657
1479459952  -2102
1479459952  -1791
1479459952  -1935
1479459952  -2101
1479459952  -1817
1479459952  -1254
1479459952  -975
1479459952  -1214
1479459952  -1567
1479459952  -1539
1479459952  -1211
1479459952  -1071
1479459952  -1338
1479459952  -1653
1479459952  -1580
1479459952  -1250
1479459952  -1174
1479459952  -1534
1479459952  -1893
1479459952  -1750
1479459952  -1254
1479459952  -1062
1479459952  -1545
1479459952  -2276
1479459952  -2479
1479459952  -1976
1479459952  -1355
1479459952  -1266
1479459952  -1684
1479459952  -2017
1479459952  -1886
1479459952  -1548
1479459952  -1476
1479459952  -1723
1479459952  -1859
1479459952  -1625
1479459952  -1317
1479459952  -1391
1479459952  -1841
1479459952  -2127
1479459952  -1891
1479459952  -1441
1479459952  -1367
1479459952  -1811
1479459952  -2268
1479459952  -2257
1479459952  -1907
1479459952  -1740
1479459952  -1952
1479459953  -2198
1479459953  -2148
1479459953  -1992
1479459953  -2127
1479459953  -2580
1479459953  -2921
1479459953  -2867
1479459953  -2704
1479459953  -2873
1479459953  -3360
1479459953  -3677
1479459953  -3528
1479459953  -3258
1479459953  -3324
1479459953  -3689
1479459953  -3859
1479459953  -3597
1479459953  -3302
1479459953  -3491
1479459953  -4078
1479459953  -4454
1479459953  -4244
1479459953  -3828
1479459953  -3837
1479459953  -4364
1479459953  -4858
1479459953  -4802
1479459953  -4334
1479459953  -4038
1479459953  -4217
1479459953  -4561
1479459953  -4570
1479459953  -4230
1479459953  -3990
1479459953  -4165
1479459953  -4495
1479459953  -4477
1479459953  -4030
1479459953  -3625
1479459953  -3688
1479459953  -4034
1479459953  -4082
1479459953  -3635
1479459953  -3176
1479459953  -3238
1479459953  -3701
1479459953  -3927
1479459953  -3592
1479459953  -3104
1479459953  -3017
1479459953  -3335
1479459953  -3526
1479459953  -3332
1479459953  -3104
1479459953  -3259
1479459953  -3687
1479459953  -3898
1479459953  -3747
1479459953  -3654
1479459953  -3957
1479459953  -4421
1479459953  -4518
1479459953  -4202
1479459953  -4014
1479459953  -4380
1479459953  -5033
1479459953  -5348
1479459953  -5152
1479459953  -4936
1479459953  -5190
1479459953  -5776
1479459953  -6121
1479459953  -5981
1479459953  -5741
1479459953  -5896
1479459953  -6389
1479459953  -6689
1479459953  -6477
1479459953  -6105
1479459953  -6179
1479459953  -6811
1479459953  -7470
1479459953  -7624
1479459953  -7401
1479459953  -7389
1479459953  -7883
1479459953  -8486
1479459953  -8590
1479459953  -8167
1479459953  -7758
1479459953  -7783
1479459953  -8013
1479459953  -7918
1479459953  -7431
1479459953  -7057
1479459953  -7211
1479459953  -7677
1479459953  -7872
1479459953  -7639
1479459953  -7406
1479459953  -7587
1479459953  -8003
1479459953  -8122
1479459953  -7810
1479459953  -7508
1479459953  -7627
1479459953  -7972
1479459953  -7993
1479459953  -7568
1479459953  -7191
1479459953  -7320
1479459953  -7741
1479459953  -7843
1479459953  -7459
1479459953  -7120
1479459953  -7330
1479459953  -7852
1479459953  -7988
1479459953  -7559
1479459953  -7216
1479459953  -7578
1479459953  -8367
1479459953  -8713
1479459953  -8667
1479459953  -7562
1479459953  -7186
1479459953  -7849
1479459953  -9136
1479459953  -10023
1479459953  -10713
1479459953  -11026
1479459953  -13248
1479459953  -17067
1479459953  -20431
1479459953  -21768
1479459953  -22440
1479459953  -26090
1479459953  -31492
1479459953  30951
1479459953  -29787
1479459953  -17526
1479459953  -3573
1479459953  6546
1479459953  11780
1479459953  13649
1479459953  12403
1479459953  7149
1479459953  -526
1479459953  -5756
1479459953  -4925
1479459953  -145
1479459953  3074
1479459953  896
1479459953  -5567
1479459953  -9705
1479459953  -8350
1479459953  -2615
1479459953  1712
1479459953  -883
1479459953  -10897
1479459953  -21535
1479459953  -23226
1479459953  -12454
1479459953  4955
1479459953  18321
1479459953  22159
1479459953  20026
1479459953  15461
1479459953  9587
1479459953  270
1479459953  -10673
1479459953  -16018
1479459953  -11235
1479459953  -161
1479459953  5935
1479459953  2235
1479459953  -7071
1479459953  -12884
1479459953  -10595
1479459953  -3087
1479459953  4414
1479459953  10236
1479459953  15766
1479459953  21264
1479459953  23489
1479459953  18452
1479459953  5760
1479459953  -9698
1479459953  -21427
1479459953  -24842
1479459953  -18984
1479459953  -9587
1479459953  -2858
1479459953  -3622
1479459953  -11467
1479459953  -20742
1479459953  -25726
1479459953  -24131
1479459953  -20484
1479459953  -18296
1479459953  -19712
1479459953  -23183
1479459953  -26083
1479459953  -27246
1479459953  -27032
1479459953  -26057
1479459953  -24843
1479459953  -23573
1479459953  -22715
1479459953  -22905
1479459953  -23932
1479459953  -24949
1479459953  -25086
1479459953  -24269
1479459953  -23313
1479459953  -22809
1479459953  -23100
1479459953  -24289
1479459953  -24587
1479459953  -24537
1479459953  -24501
1479459953  -24866
1479459953  -24670
1479459953  -23027
1479459953  -18848
1479459953  -14313
1479459953  -9921
1479459953  -3923
1479459953  6276
1479459953  19090
1479459953  29200
1479459953  28588
1479459953  16042
1479459953  -1829
1479459953  -15040
1479459953  -18269
1479459953  -11943
1479459953  -2656
1479459953  4495
1479459953  7201
1479459953  5915
1479459953  1830
1479459953  -1865
1479459953  -3866
1479459953  -3024
1479459953  -206
1479459953  2662
1479459953  3327
1479459953  2488
1479459953  257
1479459953  -1750
1479459953  -2407
1479459953  -1585
1479459953  -593
1479459953  1430
1479459953  1896
1479459953  1627
1479459953  742
1479459953  -208
1479459953  -1454
1479459953  -991
1479459953  -750
1479459953  11
1479459953  758
1479459953  1208
1479459953  529
1479459953  643
1479459953  -226
1479459953  -738
1479459953  -400
1479459953  -274
1479459953  207
1479459953  416
1479459953  181
1479459953  -150
1479459953  377
1479459953  740
1479459953  -292
1479459953  -587
1479459953  -769
1479459953  421
1479459953  1184
1479459953  -31
1479459953  -2908
1479459953  -2763
1479459953  -418
1479459953  2364
1479459953  1594
1479459953  -2211
1479459953  -4691
1479459953  -3061
1479459953  400
1479459953  1523
1479459953  -1159
1479459953  -5038
1479459953  -6603
1479459953  -4003
1479459953  -479
1479459953  1831
1479459953  1176
1479459953  2
1479459953  -746
1479459953  659
1479459953  1997
1479459953  3419
1479459953  2944
1479459953  -376
1479459953  -5956
1479459953  -14097
1479459953  -20690
1479459953  -21970
1479459953  -14942
1479459953  -1683
1479459953  9601
1479459953  12369
1479459953  4673
1479459953  -5520
1479459953  -9694
1479459953  -4140
1479459953  4312
1479459953  8611
1479459953  5962
1479459953  3196
1479459953  6052
1479459953  15021
1479459953  21824
1479459953  19555
1479459953  9421
1479459953  -2706
1479459953  -10159
1479459953  -9551
1479459953  -3499
1479459953  4657
1479459953  10776
1479459953  12086
1479459953  7854
1479459953  3274
1479459953  496
1479459953  1538
1479459953  3442
1479459953  3846
1479459953  1678
1479459953  700
1479459953  191
1479459953  -467
1479459953  -1569
1479459953  -2203
1479459953  -2216
1479459953  -114
1479459953  1174
1479459953  1946
1479459953  2031
1479459953  1731
1479459953  462
1479459953  9
1479459953  -1081
1479459953  -1382
1479459953  -984
1479459953  -98
1479459953  157
1479459953  1190
1479459953  981
1479459953  672
1479459953  295
1479459953  23
1479459953  -396
1479459953  -837
1479459953  -868
1479459953  -204
1479459953  1195
1479459953  939
1479459953  -723
1479459953  -916
1479459953  648
1479459953  2521
1479459953  1290
1479459953  -2123
1479459953  -2806
1479459953  1873
1479459953  5542
1479459953  2407
1479459953  -6002
1479459953  -10163
1479459953  -5025
1479459953  3449
1479459953  3516
1479459953  -4186
1479459953  -8401
1479459953  -406
1479459953  14018
1479459953  21687
1479459953  14865
1479459953  92
1479459953  -13033
1479459953  -21286
1479459953  -24681
1479459953  -21281
1479459953  -11280
1479459953  1128
1479459953  8801
1479459953  9433
1479459953  7631
1479459953  6744
1479459953  6990
1479459953  5216
1479459953  5495
1479459953  11350
1479459953  21671
1479459953  26966
1479459953  24416
1479459953  18832
1479459953  17229
1479459953  17785
1479459953  12499
1479459953  344
1479459953  -7135
1479459953  -532
1479459953  14450
1479459953  23528
1479459953  17680
1479459953  3215
1479459953  -8325
1479459953  -11671
1479459953  -9088
1479459953  -5569
1479459953  -1931
1479459953  1361
1479459953  1952
1479459953  -2441
1479459953  -7763
1479459953  -9586
1479459953  -4446
1479459953  4227
1479459953  10440
1479459953  9866
1479459953  4971
1479459953  -1250
1479459953  -3844
1479459953  -2521
1479459953  107
1479459953  -868
1479459953  -5246
1479459953  -8906
1479459953  -7848
1479459953  -3578
1479459953  2495
1479459953  5114
1479459953  4503
1479459953  2024
1479459953  -676
1479459953  -2308
1479459953  -573
1479459953  1692
1479459953  1636
1479459953  -1630
1479459953  -6550
1479459953  -8961
1479459953  -6559
1479459953  -3583
1479459953  -3380
1479459953  -5441
1479459953  -5843
1479459953  -2571
1479459953  2505
1479459953  4815
1479459953  4253
1479459953  1575
1479459953  161
1479459953  846
1479459953  1266
1479459953  97
1479459953  -1252
1479459953  -1198
1479459953  404
1479459953  1921
1479459953  1282
1479459953  9
1479459953  864
1479459953  1821
1479459953  597
1479459953  -4043
1479459953  -5562
1479459953  -2216
1479459953  3566
1479459953  4628
1479459953  125
1479459953  -2901
1479459953  1273
1479459953  8238
1479459953  8245
1479459953  -1077
1479459953  -11319
1479459953  -13136
1479459953  -6360
1479459953  -1352
1479459953  -2415
1479459953  -7796
1479459953  -11563
1479459953  -9677
1479459953  -3459
1479459953  2753
1479459953  7554
1479459953  6984
1479459953  1247
1479459953  -4938
1479459953  -6191
1479459953  -1845
1479459953  2807
1479459953  800
1479459953  -7870
1479459953  -15283
1479459953  -16205
1479459953  -10463
1479459953  -1624
1479459953  3956
1479459953  5764
1479459953  3985
1479459954  2342
1479459954  1870
1479459954  4706
1479459954  7520
1479459954  7556
1479459954  4437
1479459954  874
1479459954  285
1479459954  2989
1479459954  5939
1479459954  6202
1479459954  3761
1479459954  1190
1479459954  -264
1479459954  -1191
1479459954  -2297
1479459954  -2924
1479459954  -2038
1479459954  -267
1479459954  890
1479459954  1770
1479459954  1684
1479459954  2970
1479459954  3512
1479459954  2364
1479459954  412
1479459954  1054
1479459954  3827
1479459954  6177
1479459954  4062
1479459954  -2092
1479459954  -6682
1479459954  -3673
1479459954  4886
1479459954  12467
1479459954  12527
1479459954  5642
1479459954  -1569
1479459954  -2418
1479459954  2319
1479459954  8080
1479459954  11261
1479459954  11284
1479459954  8308
1479459954  1078
1479459954  -10912
1479459954  -23989
1479459954  -30760
1479459954  -26793
1479459954  -14061
1479459954  187
1479459954  12221
1479459954  18516
1479459954  20389
1479459954  17001
1479459954  9781
1479459954  5323
1479459954  7522
1479459954  15252
1479459954  16839
1479459954  7468
1479459954  -7033
1479459954  -14040
1479459954  -7882
1479459954  3913
1479459954  9783
1479459954  6294
1479459954  1969
1479459954  2516
1479459954  6895
1479459954  7672
1479459954  3865
1479459954  476
1479459954  1155
1479459954  2820
1479459954  2127
1479459954  1057
1479459954  4114
1479459954  7284
1479459954  522
1479459954  -19274
1479459954  28277
1479459954  29651
1479459954  -12838
1479459954  11243
1479459954  14889
1479459954  730
1479459954  -11168
1479459954  -8069
1479459954  3589
1479459954  8301
1479459954  3303
1479459954  1387
1479459954  7056
1479459954  12847
1479459954  6562
1479459954  -8459
1479459954  -18711
1479459954  -17102
1479459954  -8862
1479459954  -5670
1479459954  -8364
1479459954  -9223
1479459954  -2180
1479459954  6793
1479459954  11886
1479459954  8253
1479459954  578
1479459954  -5541
1479459954  -6674
1479459954  -3330
1479459954  540
1479459954  1482
1479459954  -3224
1479459954  -9981
1479459954  -12769
1479459954  -8315
1479459954  1136
1479459954  8834
1479459954  11278
1479459954  7398
1479459954  452
1479459954  -4305
1479459954  -4816
1479459954  -1425
1479459954  581
1479459954  -3345
1479459954  -11727
1479459954  -15926
1479459954  -10548
1479459954  2512
1479459954  13286
1479459954  13792
1479459954  5269
1479459954  -4775
1479459954  -9064
1479459954  -7384
1479459954  -589
1479459954  8906
1479459954  17753
1479459954  20455
1479459954  13427
1479459954  -3099
1479459954  -19744
1479459954  -27590
1479459954  -22070
1479459954  -8415
1479459954  5907
1479459954  16362
1479459954  20348
1479459954  17055
1479459954  6049
1479459954  -9652
1479459954  -21927
1479459954  -23193
1479459954  -10831
1479459954  6484
1479459954  16683
1479459954  10564
1479459954  -6753
1479459954  -21172
1479459954  -19154
1479459954  -1436
1479459954  17032
1479459954  20963
1479459954  11464
1479459954  882
1479459954  684
1479459954  8765
1479459954  14762
1479459954  13571
1479459954  9614
1479459954  10407
1479459954  12794
1479459954  9245
1479459954  -2149
1479459954  -12929
1479459954  -13534
1479459954  -2352
1479459954  9769
1479459954  12777
1479459954  6926
1479459954  -1151
1479459954  -4346
1479459954  -4508
1479459954  -5226
1479459954  -9299
1479459954  -12356
1479459954  -10161
1479459954  -1951
1479459954  7625
1479459954  12640
1479459954  9553
1479459954  996
1479459954  -6694
1479459954  -7584
1479459954  -3142
1479459954  2072
1479459954  2963
1479459954  -1058
1479459954  -5732
1479459954  -6977
1479459954  -3972
1479459954  3633
1479459954  14267
1479459954  23505
1479459954  24490
1479459954  15565
1479459954  2467
1479459954  -5307
1479459954  -1265
1479459954  10436
1479459954  21024
1479459954  27625
1479459954  30892
1479459954  29208
1479459954  20648
1479459954  5887
1479459954  -8230
1479459954  -15119
1479459954  -13911
1479459954  -11272
1479459954  -11188
1479459954  -10461
1479459954  -5045
1479459954  4197
1479459954  11789
1479459954  13485
1479459954  7653
1479459954  -1383
1479459954  -7137
1479459954  -5553
1479459954  -495
1479459954  1064
1479459954  -5333
1479459954  -14200
1479459954  -15125
1479459954  -6014
1479459954  5001
1479459954  6576
1479459954  -2239
1479459954  -10806
1479459954  -9926
1479459954  -737
1479459954  7199
1479459954  5965
1479459954  -3039
1479459954  -11166
1479459954  -10088
1479459954  499
1479459954  10030
1479459954  8097
1479459954  -6105
1479459954  -19975
1479459954  -17930
1479459954  2244
1479459954  26062
1479459954  32393
1479459954  17480
1479459954  -4788
1479459954  -14442
1479459954  -5777
1479459954  8263
1479459954  11303
1479459954  -135
1479459954  -9798
1479459954  -4618
1479459954  12809
1479459954  24488
1479459954  17232
1479459954  -6198
1479459954  -26847
1479459954  32759
1479459954  -26299
1479459954  -18184
1479459954  -14772
1479459954  -14705
1479459954  -14723
1479459954  -15444
1479459954  -16531
1479459954  -16146
1479459954  -11624
1479459954  -858
1479459954  13070
1479459954  22666
1479459954  21319
1479459954  8361
1479459954  -8643
1479459954  -17550
1479459954  -10897
1479459954  4625
1479459954  12871
1479459954  3155
1479459954  -16265
1479459954  -28435
1479459954  -22349
1479459954  -3806
1479459954  12417
1479459954  17079
1479459954  12344
1479459954  7920
1479459954  8876
1479459954  12627
1479459954  15813
1479459954  16921
1479459954  16749
1479459954  17234
1479459954  16607
1479459954  11517
1479459954  2773
1479459954  -6056
1479459954  -10314
1479459954  -8117
1479459954  -2231
1479459954  1371
1479459954  -205
1479459954  -5899
1479459954  -8309
1479459954  -2811
1479459954  7826
1479459954  14459
1479459954  10997
1479459954  303
1479459954  -6963
1479459954  -3698
1479459954  6094
1479459954  10139
1479459954  1543
1479459954  -14814
1479459954  -26635
1479459954  -27734
1479459954  -21588
1479459954  -15136
1479459954  -12761
1479459954  -12328
1479459954  -9922
1479459954  -4613
1479459954  1010
1479459954  5192
1479459954  4994
1479459954  -2412
1479459954  -14615
1479459954  -22166
1479459954  -17640
1479459954  -1827
1479459954  14866
1479459954  20020
1479459954  12433
1479459954  -318
1479459954  -11055
1479459954  -18597
1479459954  -20998
1479459954  -16255
1479459954  -3726
1479459954  9806
1479459954  14954
1479459954  9656
1479459954  4024
1479459954  5843
1479459954  12799
1479459954  14919
1479459954  7656
1479459954  -3307
1479459954  -7636
1479459954  -4547
1479459954  92
1479459954  1421
1479459954  -512
1479459954  -1886
1479459954  -1224
1479459954  -467
1479459954  160
1479459954  835
1479459954  2590
1479459954  3592
1479459954  2228
1479459954  -690
1479459954  -2791
1479459954  -3378
1479459954  -2780
1479459954  -1913
1479459954  -47
1479459954  1610
1479459954  2677
1479459954  1627
1479459954  -1106
1479459954  -3137
1479459954  -1790
1479459954  269
1479459954  -559
1479459954  -6420
1479459954  -14927
1479459954  -22703
1479459954  -25957
1479459954  -24789
1479459954  -18245
1479459954  -10280
1479459954  -5941
1479459954  -9501
1479459954  -17385
1479459954  -23710
1479459954  -24805
1479459954  -25598
1479459954  -29223
1479459954  32112
1479459954  -29652
1479459954  -18307
1479459954  -8045
1479459954  -8622
1479459954  -17231
1479459954  -22663
1479459954  -18563
1479459954  -10007
1479459954  -5275
1479459954  -4315
1479459954  -1556
1479459954  3969
1479459954  6693
1479459954  3037
1479459954  -2569
1479459954  -3413
1479459954  -65
1479459954  153
1479459954  -6014
1479459954  -10840
1479459954  -4364
1479459954  12797
1479459954  27189
1479459954  24593
1479459954  7151
1479459954  -13005
1479459954  -22480
1479459954  -19529
1479459954  -9289
1479459954  602
1479459954  8881
1479459954  14964
1479459954  16253
1479459954  11693
1479459954  5552
1479459954  2095
1479459954  2875
1479459954  2475
1479459954  -3484
1479459954  -9919
1479459954  -8005
1479459954  2137
1479459954  9853
1479459954  7751
1479459954  324
1479459954  -2237
1479459954  802
1479459954  2960
1479459954  -110
1479459954  27
1479459954  11340
1479459954  26789
1479459954  29328
1479459954  13698
1479459954  -4820
1479459954  -7648
1479459954  4606
1479459954  15001
1479459954  12863
1479459954  6144
1479459954  9275
1479459954  20187
1479459954  24633
1479459954  12999
1479459954  -6169
1479459954  -16907
1479459954  -13239
1479459954  -3175
1479459954  723
1479459954  -4033
1479459954  -13081
1479459954  -20913
1479459954  -22953
1479459954  -19468
1479459954  -11094
1479459954  1561
1479459954  15429
1479459954  25325
1479459954  24864
1479459954  12297
1479459954  -6989
1479459954  -21455
1479459954  -23309
1479459954  -13896
1479459954  -3094
1479459954  4061
1479459954  8266
1479459954  10988
1479459954  9652
1479459954  853
1479459954  -12591
1479459954  -21851
1479459955  -21162
1479459955  -14563
1479459955  -10986
1479459955  -14170
1479459955  -20134
1479459955  -23987
1479459955  -25722
1479459955  -28242
1479459955  -31428
1479459955  -31877
1479459955  -28296
1479459955  -23226
1479459955  -22285
1479459955  -25379
1479459955  -28949
1479459955  -29587
1479459955  -26068
1479459955  -21805
1479459955  -18698
1479459955  -18295
1479459955  -20707
1479459955  -24900
1479459955  -29136
1479459955  -31520
1479459955  -30998
1479459955  -27761
1479459955  -23664
1479459955  -20783
1479459955  -20146
1479459955  -21472
1479459955  -23802
1479459955  -26251
1479459955  -27817
1479459955  -27832
1479459955  -26129
1479459955  -23629
1479459955  -21930
1479459955  -22032
1479459955  -22934
1479459955  -22269
1479459955  -20783
1479459955  -19101
1479459955  -19516
1479459955  -21748
1479459955  -24232
1479459955  -25502
1479459955  -24461
1479459955  -18586
1479459955  -8067
1479459955  847
1479459955  -1031
1479459955  -13631
1479459955  -26307
1479459955  -24939
1479459955  -9539
1479459955  5443
1479459955  5886
1479459955  -2649
1479459955  -5030
1479459955  5895
1479459955  18334
1479459955  17378
1479459955  4670
1479459955  -3380
1479459955  3687
1479459955  17439
1479459955  20888
1479459955  8458
1479459955  -8448
1479459955  -15215
1479459955  -9904
1479459955  45
1479459955  5253
1479459955  4329
1479459955  955
1479459955  -1013
1479459955  -1646
1479459955  812
1479459955  5010
1479459955  9511
1479459955  10579
1479459955  7802
1479459955  1312
1479459955  -6138
1479459955  -13451
1479459955  -18840
1479459955  -19633
1479459955  -10556
1479459955  5408
1479459955  21390
1479459955  27302
1479459955  20959
1479459955  9352
1479459955  3996
1479459955  7764
1479459955  14260
1479459955  12671
1479459955  98
1479459955  -12498
1479459955  -11752
1479459955  3744
1479459955  18797
1479459955  17870
1479459955  2165
1479459955  -10673
1479459955  -7248
1479459955  5285
1479459955  12048
1479459955  4307
1479459955  -6105
1479459955  -6637
1479459955  4167
1479459955  15271
1479459955  20322
1479459955  20416
1479459955  18282
1479459955  13058
1479459955  6025
1479459955  1409
1479459955  6195
1479459955  14642
1479459955  14993
1479459955  2554
1479459955  -11999
1479459955  -16481
1479459955  -8739
1479459955  2665
1479459955  7775
1479459955  6745
1479459955  5079
1479459955  7220
1479459955  11484
1479459955  16036
1479459955  17173
1479459955  14420
1479459955  9027
1479459955  5001
1479459955  3503
1479459955  2983
1479459955  -480
1479459955  -6596
1479459955  -11790
1479459955  -11596
1479459955  -6504
1479459955  -78
1479459955  6154
1479459955  9761
1479459955  9856
1479459955  7595
1479459955  5509
1479459955  5943
1479459955  7849
1479459955  9106
1479459955  9061
1479459955  10674
1479459955  13955
1479459955  13910
1479459955  6992
1479459955  -4361
1479459955  -11499
1479459955  -8748
1479459955  1985
1479459955  11428
1479459955  11929
1479459955  4748
1479459955  -4062
1479459955  -9118
1479459955  -7909
1479459955  -3600
1479459955  -1411
1479459955  -2184
1479459955  -2954
1479459955  -375
1479459955  3330
1479459955  4515
1479459955  -599
1479459955  -9335
1479459955  -13813
1479459955  -10094
1479459955  -920
1479459955  6647
1479459955  8114
1479459955  3611
1479459955  -2420
1479459955  -3171
1479459955  -427
1479459955  2321
1479459955  654
1479459955  -4294
1479459955  -7827
1479459955  -4838
1479459955  -238
1479459955  1890
1479459955  343
1479459955  -266
1479459955  4488
1479459955  10231
1479459955  11701
1479459955  5089
1479459955  -3272
1479459955  -7305
1479459955  -6047
1479459955  -2188
1479459955  3833
1479459955  10810
1479459955  16571
1479459955  12802
1479459955  -1171
1479459955  -15582
1479459955  -17655
1479459955  -5079
1479459955  9230
1479459955  13138
1479459955  9795
1479459955  9508
1479459955  17012
1479459955  21054
1479459955  12070
1479459955  -5544
1479459955  -15402
1479459955  -8477
1479459955  6481
1479459955  14539
1479459955  8826
1479459955  -3445
1479459955  -15432
1479459955  -23689
1479459955  -29056
1479459955  -26763
1479459955  -13109
1479459955  7378
1479459955  23911
1479459955  24045
1479459955  9317
1479459955  -9942
1479459955  -20374
1479459955  -17511
1479459955  -5298
1479459955  5419
1479459955  7570
1479459955  2127
1479459955  -3355
1479459955  -4374
1479459955  93
1479459955  2691
1479459955  -985
1479459955  -6581
1479459955  -7086
1479459955  759
1479459955  12831
1479459955  21093
1479459955  18632
1479459955  6781
1479459955  -6884
1479459955  -13104
1479459955  -7991
1479459955  4116
1479459955  14486
1479459955  15527
1479459955  6008
1479459955  -4868
1479459955  -10704
1479459955  -7829
1479459955  -1289
1479459955  1460
1479459955  -1820
1479459955  -6360
1479459955  -4741
1479459955  1583
1479459955  4472
1479459955  -1905
1479459955  -14188
1479459955  -19898
1479459955  -12891
1479459955  -62
1479459955  6420
1479459955  3609
1479459955  374
1479459955  5493
1479459955  16047
1479459955  20911
1479459955  13707
1479459955  2898
1479459955  -2259
1479459955  1761
1479459955  6316
1479459955  3860
1479459955  -5985
1479459955  -14255
1479459955  -16082
1479459955  -10337
1479459955  -1835
1479459955  6348
1479459955  9569
1479459955  6257
1479459955  -2446
1479459955  -9017
1479459955  -9606
1479459955  -2860
1479459955  5688
1479459955  9009
1479459955  4285
1479459955  -3382
1479459955  -6750
1479459955  -3357
1479459955  684
1479459955  79
1479459955  -5497
1479459955  -7659
1479459955  -2653
1479459955  8044
1479459955  14431
1479459955  14125
1479459955  11296
1479459955  11111
1479459955  12639
1479459955  12426
1479459955  10687
1479459955  11431
1479459955  15086
1479459955  16022
1479459955  11397
1479459955  6245
1479459955  8404
1479459955  15137
1479459955  15859
1479459955  4956
1479459955  -9645
1479459955  -13178
1479459955  -4813
1479459955  2969
1479459955  120
1479459955  -9696
1479459955  -12944
1479459955  -4075
1479459955  7154
1479459955  9069
1479459955  1126
1479459955  -6687
1479459955  -6063
1479459955  -1140
1479459955  -415
1479459955  -5098
1479459955  -7082
1479459955  1632
1479459955  18442
1479459955  28715
1479459955  20895
1479459955  1368
1479459955  -13568
1479459955  -14648
1479459955  -6870
1479459955  -4690
1479459955  -11579
1479459955  -19472
1479459955  -16292
1479459955  -3324
1479459955  8851
1479459955  11596
1479459955  6545
1479459955  213
1479459955  -2409
1479459955  -3035
1479459955  -2927
1479459955  -782
1479459955  2144
1479459955  3330
1479459955  1555
1479459955  -1785
1479459955  -2537
1479459955  102
1479459955  104
1479459955  -5547
1479459955  -13166
1479459955  -15046
1479459955  -7795
1479459955  3574
1479459955  10718
1479459955  10075
1479459955  4252
1479459955  -1639
1479459955  -4697
1479459955  -5050
1479459955  -3628
1479459955  -747
1479459955  2372
1479459955  4015
1479459955  3242
1479459955  703
1479459955  -1857
1479459955  -2784
1479459955  -2178
1479459955  -508
1479459955  906
1479459955  2079
1479459955  1576
1479459955  847
1479459955  -350
1479459955  -560
1479459955  -990
1479459955  -622
1479459955  -423
1479459955  584
1479459955  977
1479459955  1066
1479459955  -213
1479459955  -834
1479459955  81
1479459955  2372
1479459955  3126
1479459955  2073
1479459955  -593
1479459955  -1375
1479459955  -698
1479459955  619
1479459955  -76
1479459955  -1036
1479459955  -1626
1479459955  -610
1479459955  -444
1479459955  -653
1479459955  59
1479459955  1955
1479459955  4218
1479459955  3282
1479459955  -3168
1479459955  -11302
1479459955  -15385
1479459955  -11596
1479459955  -1837
1479459955  9367
1479459955  14297
1479459955  10307
1479459955  -37
1479459955  -9508
1479459955  -12896
1479459955  -9778
1479459955  -5931
1479459955  -5784
1479459955  -8468
1479459955  -6505
1479459955  -237
1479459955  5510
1479459955  3855
1479459955  -5221
1479459955  -13156
1479459955  -12799
1479459955  -5201
1479459955  2935
1479459955  7342
1479459955  9902
1479459955  14366
1479459955  20919
1479459955  24847
1479459955  21562
1479459955  11402
1479459955  -381
1479459955  -7215
1479459955  -7259
1479459955  -1357
1479459955  2470
1479459955  844
1479459955  -5041
1479459955  -9594
1479459955  -9115
1479459955  -3625
1479459955  2085
1479459955  3841
1479459955  3324
1479459955  2971
1479459955  2407
1479459955  2203
1479459955  632
1479459955  -1087
1479459955  -1620
1479459955  -1329
1479459955  -1002
1479459955  -914
1479459955  -590
1479459955  251
1479459955  1291
1479459955  2018
1479459955  1137
1479459955  719
1479459955  -448
1479459955  -961
1479459955  -896
1479459955  -595
1479459955  -918
1479459955  536
1479459955  2019
1479459955  3554
1479459955  3952
1479459955  3024
1479459955  1008
1479459955  1152
1479459955  1680
1479459955  2526
1479459955  2342
1479459955  1084
1479459955  -1025
1479459955  -937
1479459955  -564
1479459955  82
1479459955  267
1479459955  206
1479459955  270
1479459955  452
1479459955  214
1479459955  -491
1479459955  164
1479459955  1731
1479459955  4501
1479459955  6735
1479459955  6360
1479459955  1823
1479459955  -4621
1479459955  -8989
1479459956  -6582
1479459956  3838
1479459956  15408
1479459956  18549
1479459956  9609
1479459956  -4798
1479459956  -12681
1479459956  -7609
1479459956  5164
1479459956  14389
1479459956  14229
1479459956  7587
1479459956  1010
1479459956  -2534
1479459956  -5165
1479459956  -9023
1479459956  -12246
1479459956  -11393
1479459956  -6022
1479459956  782
1479459956  2552
1479459956  137
1479459956  -4369
1479459956  -7298
1479459956  -6865
1479459956  -3491
1479459956  2046
1479459956  8152
1479459956  11832
1479459956  9033
1479459956  1301
1479459956  -6790
1479459956  -9231
1479459956  -6139
1479459956  -3229
1479459956  -5552
1479459956  -10178
1479459956  -10321
1479459956  -3667
1479459956  5659
1479459956  10402
1479459956  7753
1479459956  1234
1479459956  -4092
1479459956  -5810
1479459956  -4678
1479459956  -2104
1479459956  1006
1479459956  3746
1479459956  4593
1479459956  2951
1479459956  -131
1479459956  -2856
1479459956  -3761
1479459956  -2248
1479459956  -234
1479459956  1404
1479459956  2605
1479459956  2338
1479459956  1775
1479459956  1090
1479459956  -350
1479459956  -2547
1479459956  -2091
1479459956  299
1479459956  2196
1479459956  1672
1479459956  -1447
1479459956  -2800
1479459956  1011
1479459956  4500
1479459956  4581
1479459956  3632
1479459956  8055
1479459956  19129
1479459956  27096
1479459956  19117
1479459956  54
1479459956  -14721
1479459956  -13062
1479459956  -557
1479459956  8808
1479459956  7564
1479459956  2838
1479459956  4070
1479459956  8327
1479459956  7632
1479459956  1614
1479459956  -2860
1479459956  1362
1479459956  10555
1479459956  13595
1479459956  8247
1479459956  -1645
1479459956  -7414
1479459956  -7260
1479459956  -3126
1479459956  1587
1479459956  4139
1479459956  1457
1479459956  -5764
1479459956  -12167
1479459956  -8276
1479459956  5847
1479459956  20903
1479459956  24036
1479459956  11771
1479459956  -4691
1479459956  -12631
1479459956  -8974
1479459956  -573
1479459956  4331
1479459956  4929
1479459956  5790
1479459956  8718
1479459956  10029
1479459956  5446
1479459956  -3981
1479459956  -11520
1479459956  -11868
1479459956  -5387
1479459956  -256
1479459956  -821
1479459956  -7751
1479459956  -16573
1479459956  -20357
1479459956  -13762
1479459956  1657
1479459956  17193
1479459956  19900
1479459956  7496
1479459956  -10458
1479459956  -16338
1479459956  -8091
1479459956  684
1479459956  -4016
1479459956  -17110
1479459956  -22296
1479459956  -11558
1479459956  1293
1479459956  -1302
1479459956  -16725
1479459956  -24695
1479459956  -13407
1479459956  4993
1479459956  9305
1479459956  -5341
1479459956  -20306
1479459956  -19464
1479459956  -3841
1479459956  13490
1479459956  22135
1479459956  23576
1479459956  20194
1479459956  12844
1479459956  1893
1479459956  -6140
1479459956  -5971
1479459956  265
1479459956  2820
1479459956  -1761
1479459956  -9838
1479459956  -13537
1479459956  -9927
1479459956  -2174
1479459956  3921
1479459956  5743
1479459956  1012
1479459956  -7262
1479459956  -14506
1479459956  -13847
1479459956  -4387
1479459956  7013
1479459956  13336
1479459956  10368
1479459956  2078
1479459956  -6726
1479459956  -10740
1479459956  -9361
1479459956  -2910
1479459956  4332
1479459956  8271
1479459956  6971
1479459956  3616
1479459956  -133
1479459956  -2275
1479459956  -4503
1479459956  -7444
1479459956  -9379
1479459956  -7155
1479459956  -2144
1479459956  639
1479459956  -1179
1479459956  -6221
1479459956  -9616
1479459956  -5551
1479459956  5385
1479459956  15692
1479459956  18698
1479459956  13243
1479459956  6801
1479459956  7491
1479459956  15955
1479459956  22103
1479459956  20078
1479459956  9936
1479459956  -575
1479459956  -5708
1479459956  -6194
1479459956  -4706
1479459956  -4320
1479459956  -4125
1479459956  -4784
1479459956  -4372
1479459956  -1266
1479459956  7160
1479459956  15674
1479459956  18428
1479459956  12611
1479459956  2017
1479459956  -6095
1479459956  -8878
1479459956  -8520
1479459956  -5085
1479459956  246
1479459956  5833
1479459956  6002
1479459956  843
1479459956  -3646
1479459956  -606
1479459956  8205
1479459956  14085
1479459956  8707
1479459956  -1899
1479459956  -7317
1479459956  -3325
1479459956  3318
1479459956  5163
1479459956  643
1479459956  -3836
1479459956  -2785
1479459956  1261
1479459956  4020
1479459956  4461
1479459956  2897
1479459956  1780
1479459956  -33
1479459956  -2987
1479459956  -6579
1479459956  -11480
1479459956  -16681
1479459956  -20567
1479459956  -20459
1479459956  -13974
1479459956  -3383
1479459956  5710
1479459956  10676
1479459956  9886
1479459956  6846
1479459956  4310
1479459956  3483
1479459956  3061
1479459956  2102
1479459956  -974
1479459956  -3217
1479459956  -1447
1479459956  2877
1479459956  3754
1479459956  -3065
1479459956  -11571
1479459956  -11955
1479459956  -1167
1479459956  10300
1479459956  10565
1479459956  -1329
1479459956  -12494
1479459956  -13827
1479459956  -8584
1479459956  -5535
1479459956  -3582
1479459956  668
1479459956  8296
1479459956  10023
1479459956  1170
1479459956  -11720
1479459956  -17176
1479459956  -14398
1479459956  -13620
1479459956  -19616
1479459956  -24326
1479459956  -18457
1479459956  -7127
1479459956  -2389
1479459956  -10976
1479459956  -20803
1479459956  -18413
1479459956  -1652
1479459956  14920
1479459956  20989
1479459956  13212
1479459956  379
1479459956  -9530
1479459956  -12531
1479459956  -8331
1479459956  -962
1479459956  4936
1479459956  3791
1479459956  -3135
1479459956  -9151
1479459956  -8199
1479459956  -940
1479459956  5914
1479459956  6746
1479459956  2173
1479459956  -2364
1479459956  -1609
1479459956  3086
1479459956  8022
1479459956  9108
1479459956  5833
1479459956  134
1479459956  -4897
1479459956  -5506
1479459956  976
1479459956  13143
1479459956  22993
1479459956  20956
1479459956  3817
1479459956  -17279
1479459956  -29999
1479459956  -25893
1479459956  -9630
1479459956  8232
1479459956  19652
1479459956  22887
1479459956  19718
1479459956  12749
1479459956  5163
1479459956  278
1479459956  718
1479459956  4973
1479459956  11585
1479459956  14161
1479459956  10740
1479459956  1977
1479459956  -7160
1479459956  -11551
1479459956  -8715
1479459956  -4125
1479459956  -3060
1479459956  -5368
1479459956  -5849
1479459956  -1783
1479459956  4937
1479459956  7581
1479459956  4288
1479459956  -1378
1479459956  -4701
1479459956  -4204
1479459956  -1694
1479459956  706
1479459956  2597
1479459956  3731
1479459956  3387
1479459956  1836
1479459956  -1310
1479459956  -4199
1479459956  -3987
1479459956  -831
1479459956  2456
1479459956  2313
1479459956  209
1479459956  -1086
1479459956  808
1479459956  2221
1479459956  -361
1479459956  -3754
1479459956  814
1479459956  12967
1479459956  22301
1479459956  17022
1479459956  333
1479459956  -10960
1479459956  -6576
1479459956  4797
1479459956  5927
1479459956  -9048
1479459956  -26855
1479459956  -29243
1479459956  -10998
1479459956  13564
1479459956  29222
1479459956  28478
1479459956  13570
1479459956  -6609
1479459956  -20799
1479459956  -22458
1479459956  -11437
1479459956  3716
1479459956  11075
1479459956  4953
1479459956  -10247
1479459956  -22098
1479459956  -19245
1479459956  -2520
1479459956  16162
1479459956  25228
1479459956  22100
1479459956  17659
1479459956  20197
1479459956  25936
1479459956  25293
1479459956  14731
1479459956  3304
1479459956  772
1479459956  7455
1479459956  14508
1479459956  15871
1479459956  14719
1479459956  13479
1479459956  12425
1479459956  7536
1479459956  1709
1479459956  -1017
1479459956  -111
1479459956  6
1479459956  -2778
1479459956  -5359
1479459956  -6110
1479459956  -7981
1479459956  -12239
1479459956  -14929
1479459956  -9547
1479459956  1646
1479459956  7690
1479459956  364
1479459956  -13120
1479459956  -17815
1479459956  -8147
1479459956  3979
1479459956  4004
1479459956  -9635
1479459956  -23993
1479459956  -28749
1479459956  -23530
1479459956  -18231
1479459956  -19071
1479459956  -23081
1479459956  -25465
1479459956  -23488
1479459956  -20639
1479459956  -19015
1479459956  -19767
1479459956  -21491
1479459956  -23364
1479459956  -26053
1479459956  -27174
1479459956  -26416
1479459956  -21965
1479459956  -16276
1479459956  -8071
1479459956  1237
1479459956  10395
1479459956  14804
1479459956  14217
1479459956  12797
1479459956  12804
1479459956  12621
1479459956  7462
1479459956  -3297
1479459956  -12568
1479459956  -12383
1479459956  -3343
1479459956  5994
1479459956  7284
1479459956  1790
1479459956  -3082
1479459956  -3037
1479459956  -907
1479459956  770
1479459956  1851
1479459956  5472
1479459956  9196
1479459956  7888
1479459956  1029
1479459956  -3051
1479459956  3433
1479459956  16107
1479459956  22698
1479459956  17773
1479459956  9686
1479459956  9375
1479459956  15671
1479459956  15588
1479459956  4352
1479459956  -9229
1479459956  -10174
1479459956  471
1479459956  9189
1479459956  3780
1479459956  -9332
1479459956  -15294
1479459956  -9085
1479459956  1403
1479459956  3645
1479459956  -4878
1479459956  -16330
1479459957  -21755
1479459957  -18137
1479459957  -5209
1479459957  11413
1479459957  25232
1479459957  28988
1479459957  20822
1479459957  5761
1479459957  -7367
1479459957  -13394
1479459957  -10445
1479459957  -3205
1479459957  2141
1479459957  753
1479459957  -7014
1479459957  -15561
1479459957  -20008
1479459957  -18069
1479459957  -12618
1479459957  -5306
1479459957  3842
1479459957  13439
1479459957  16577
1479459957  8722
1479459957  -7313
1479459957  -21573
1479459957  -26519
1479459957  -22870
1479459957  -15454
1479459957  -5997
1479459957  6998
1479459957  21049
1479459957  27773
1479459957  21227
1479459957  6698
1479459957  -2982
1479459957  -2458
1479459957  2341
1479459957  3098
1479459957  -1957
1479459957  -4506
1479459957  1591
1479459957  14761
1479459957  27910
1479459957  -31445
1479459957  30000
1479459957  17146
1479459957  3238
1479459957  -1590
1479459957  7619
1479459957  20730
1479459957  22826
1479459957  9180
1479459957  -7646
1479459957  -12239
1479459957  -4458
1479459957  356
1479459957  -8889
1479459957  -25987
1479459957  31653
1479459957  -27119
1479459957  -16442
1479459957  -14911
1479459957  -21580
1479459957  -23778
1479459957  -13255
1479459957  2662
1479459957  12583
1479459957  11900
1479459957  8992
1479459957  11072
1479459957  15681
1479459957  15993
1479459957  12325
1479459957  10873
1479459957  14224
1479459957  17953
1479459957  13962
1479459957  3901
1479459957  -3354
1479459957  -2808
1479459957  -405
1479459957  -2202
1479459957  -7917
1479459957  -8698
1479459957  -1115
1479459957  7089
1479459957  9266
1479459957  6676
1479459957  7063
1479459957  12730
1479459957  17425
1479459957  13689
1479459957  4539
1479459957  -3126
1479459957  -5400
1479459957  -5273
1479459957  -5889
1479459957  -5972
1479459957  -3034
1479459957  568
1479459957  -1240
1479459957  -11108
1479459957  -21822
1479459957  -25124
1479459957  -14813
1479459957  1864
1479459957  14727
1479459957  16734
1479459957  9667
1479459957  1970
1479459957  17
1479459957  3633
1479459957  3769
1479459957  -1472
1479459957  -8064
1479459957  -9361
1479459957  -4287
1479459957  -1039
1479459957  -7518
1479459957  -17838
1479459957  -20087
1479459957  -9113
1479459957  5090
1479459957  6949
1479459957  -5796
1479459957  -20432
1479459957  -22462
1479459957  -11423
1479459957  1761
1479459957  5776
1479459957  -867
1479459957  -9546
1479459957  -12534
1479459957  -5405
1479459957  8244
1479459957  16454
1479459957  10151
1479459957  -7074
1479459957  -19793
1479459957  -16318
1479459957  -2604
1479459957  4063
1479459957  -3540
1479459957  -16327
1479459957  -17625
1479459957  -6295
1479459957  6675
1479459957  9338
1479459957  2107
1479459957  -5515
1479459957  -8565
1479459957  -6577
1479459957  -142
1479459957  9864
1479459957  19010
1479459957  20680
1479459957  12668
1479459957  1329
1479459957  -5234
1479459957  -4603
1479459957  -3211
1479459957  -5379
1479459957  -7772
1479459957  -4054
1479459957  6143
1479459957  15413
1479459957  13858
1479459957  3366
1479459957  -9542
1479459957  -13834
1479459957  -7024
1479459957  3910
1479459957  10758
1479459957  8576
1479459957  1658
1479459957  -3746
1479459957  -3674
1479459957  1079
1479459957  4743
1479459957  3129
1479459957  -3374
1479459957  -11753
1479459957  -14880
1479459957  -10288
1479459957  437
1479459957  10344
1479459957  15052
1479459957  12451
1479459957  4853
1479459957  -2630
1479459957  -5743
1479459957  -1017
1479459957  10251
1479459957  19299
1479459957  18322
1479459957  7730
1479459957  -5262
1479459957  -10946
1479459957  -6821
1479459957  -473
1479459957  1085
1479459957  -2933
1479459957  -7588
1479459957  -7962
1479459957  -5127
1479459957  -1234
1479459957  2668
1479459957  5447
1479459957  6650
1479459957  4977
1479459957  1768
1479459957  -2050
1479459957  -3627
1479459957  -3372
1479459957  -2914
1479459957  -1612
1479459957  1321
1479459957  4571
1479459957  3317
1479459957  -3714
1479459957  -14033
1479459957  -19862
1479459957  -15258
1479459957  -3777
1479459957  6240
1479459957  9134
1479459957  5776
1479459957  4137
1479459957  9839
1479459957  17430
1479459957  17101
1479459957  3619
1479459957  -15423
1479459957  -27733
1479459957  -25196
1479459957  -13189
1479459957  -1767
1479459957  4358
1479459957  6206
1479459957  8521
1479459957  10232
1479459957  8555
1479459957  3629
1479459957  -1321
1479459957  -3263
1479459957  -5043
1479459957  -10704
1479459957  -17179
1479459957  -18591
1479459957  -12105
1479459957  -3089
1479459957  1253
1479459957  -1179
1479459957  -5184
1479459957  -4306
1479459957  343
1479459957  2670
1479459957  1539
1479459957  1111
1479459957  5600
1479459957  12165
1479459957  14334
1479459957  8344
1479459957  -76
1479459957  -3657
1479459957  -1310
1479459957  1297
1479459957  -1665
1479459957  -8264
1479459957  -14803
1479459957  -16051
1479459957  -11653
1479459957  -3647
1479459957  5434
1479459957  10053
1479459957  7171
1479459957  -3176
1479459957  -13328
1479459957  -14455
1479459957  -6928
1479459957  1002
1479459957  614
1479459957  -7910
1479459957  -15118
1479459957  -15091
1479459957  -7031
1479459957  953
1479459957  4069
1479459957  1574
1479459957  -1728
1479459957  -2699
1479459957  -1212
1479459957  1909
1479459957  3869
1479459957  2287
1479459957  -905
1479459957  -2220
1479459957  -440
1479459957  2269
1479459957  3084
1479459957  2762
1479459957  3336
1479459957  3811
1479459957  1604
1479459957  -3493
1479459957  -7733
1479459957  -5352
1479459957  2663
1479459957  10191
1479459957  12374
1479459957  10968
1479459957  10004
1479459957  12021
1479459957  14134
1479459957  12414
1479459957  3493
1479459957  -9676
1479459957  -18764
1479459957  -14970
1479459957  -223
1479459957  10988
1479459957  5835
1479459957  -12394
1479459957  -24069
1479459957  -16493
1479459957  2130
1479459957  10391
1479459957  4157
1479459957  -3239
1479459957  2822
1479459957  17002
1479459957  22703
1479459957  13061
1479459957  1148
1479459957  -1158
1479459957  2846
1479459957  945
1479459957  -8817
1479459957  -16178
1479459957  -11276
1479459957  -1415
1479459957  2270
1479459957  -3052
1479459957  -8918
1479459957  -7789
1479459957  -2004
1479459957  2934
1479459957  3343
1479459957  2507
1479459957  3018
1479459957  3388
1479459957  2467
1479459957  290
1479459957  -1254
1479459957  -2040
1479459957  -2988
1479459957  -2792
1479459957  77
1479459957  4110
1479459957  4003
1479459957  -489
1479459957  -6726
1479459957  -8160
1479459957  -2493
1479459957  3761
1479459957  4491
1479459957  -1347
1479459957  -4696
1479459957  1083
1479459957  15013
1479459957  25053
1479459957  22372
1479459957  7974
1479459957  -8343
1479459957  -16198
1479459957  -14432
1479459957  -8402
1479459957  -3035
1479459957  1205
1479459957  5104
1479459957  6880
1479459957  2959
1479459957  -5542
1479459957  -11370
1479459957  -8258
1479459957  1600
1479459957  7696
1479459957  4683
1479459957  -3616
1479459957  -6782
1479459957  -3393
1479459957  -428
1479459957  -4095
1479459957  -9547
1479459957  -6792
1479459957  7130
1479459957  21040
1479459957  21593
1479459957  9484
1479459957  -3302
1479459957  -6828
1479459957  -1015
1479459957  4276
1479459957  4989
1479459957  2573
1479459957  2282
1479459957  3365
1479459957  3396
1479459957  406
1479459957  -2986
1479459957  -3337
1479459957  -1574
1479459957  610
1479459957  1818
1479459957  1970
1479459957  1929
1479459957  1985
1479459957  1884
1479459957  506
1479459957  -214
1479459957  -1336
1479459957  -1197
1479459957  -156
1479459957  1017
1479459957  1411
1479459957  1104
1479459957  623
1479459957  275
1479459957  -12
1479459957  -557
1479459957  -831
1479459957  590
1479459957  2132
1479459957  2935
1479459957  1958
1479459957  324
1479459957  142
1479459957  2462
1479459957  3568
1479459957  1405
1479459957  -4006
1479459957  -9335
1479459957  -11086
1479459957  -7119
1479459957  -346
1479459957  8790
1479459957  15889
1479459957  17554
1479459957  12498
1479459957  5010
1479459957  -1003
1479459957  -1192
1479459957  518
1479459957  582
1479459957  102
1479459957  4600
1479459957  13194
1479459957  20621
1479459957  17553
1479459957  4626
1479459957  -7782
1479459957  -9682
1479459957  -563
1479459957  9465
1479459957  13188
1479459957  10620
1479459957  7048
1479459957  5089
1479459957  2342
1479459957  -3022
1479459957  -8698
1479459957  -8425
1479459957  -2802
1479459957  1901
1479459957  266
1479459957  -4711
1479459957  -5353
1479459957  -8
1479459957  5413
1479459957  945
1479459957  -12225
1479459957  -22118
1479459957  -18604
1479459957  -1309
1479459957  18167
1479459957  25760
1479459957  18667
1479459957  3712
1479459957  -8824
1479459957  -12134
1479459957  -8243
1479459957  -5614
1479459957  -8532
1479459957  -11878
1479459957  -10087
1479459957  -323
1479459957  9166
1479459957  10667
1479459957  4337
1479459957  -3682
1479459957  -8956
1479459957  -10950
1479459957  -10199
1479459957  -3373
1479459957  9949
1479459957  22336
1479459958  22553
1479459958  11512
1479459958  -1884
1479459958  -6227
1479459958  -2850
1479459958  -782
1479459958  -4087
1479459958  -6034
1479459958  -1226
1479459958  6086
1479459958  8051
1479459958  1956
1479459958  -5016
1479459958  -5186
1479459958  1592
1479459958  6105
1479459958  4617
1479459958  -1386
1479459958  -5070
1479459958  -4836
1479459958  -3409
1479459958  -1815
1479459958  952
1479459958  5377
1479459958  6978
1479459958  2404
1479459958  -7900
1479459958  -15372
1479459958  -12905
1479459958  -2069
1479459958  8148
1479459958  10567
1479459958  5109
1479459958  -1941
1479459958  -7984
1479459958  -12656
1479459958  -16991
1479459958  -16192
1479459958  -7272
1479459958  8118
1479459958  19604
1479459958  16763
1479459958  -1142
1479459958  -21773
1479459958  -31060
1479459958  -21840
1479459958  -2272
1479459958  13001
1479459958  15069
1479459958  7400
1479459958  421
1479459958  -751
1479459958  2115
1479459958  2911
1479459958  -823
1479459958  -4457
1479459958  -6530
1479459958  -7379
1479459958  -9708
1479459958  -10651
1479459958  -6725
1479459958  1115
1479459958  8531
1479459958  9952
1479459958  6544
1479459958  3809
1479459958  5266
1479459958  7917
1479459958  7713
1479459958  2090
1479459958  -5111
1479459958  -7699
1479459958  -4610
1479459958  1385
1479459958  3603
1479459958  150
1479459958  -6832
1479459958  -10897
1479459958  -8197
1479459958  -281
1479459958  6890
1479459958  9486
1479459958  5822
1479459958  -1191
1479459958  -7036
1479459958  -8583
1479459958  -6476
1479459958  -2961
1479459958  -2897
1479459958  -7104
1479459958  -11855
1479459958  -10314
1479459958  -2501
1479459958  8314
1479459958  13381
1479459958  9619
1479459958  785
1479459958  -6918
1479459958  -9734
1479459958  -7812
1479459958  -3128
1479459958  2451
1479459958  6763
1479459958  7686
1479459958  5295
1479459958  -594
1479459958  -4859
1479459958  -5975
1479459958  -3891
1479459958  -448
1479459958  2272
1479459958  3962
1479459958  3010
1479459958  1901
1479459958  549
1479459958  -1665
1479459958  -2844
1479459958  -1177
1479459958  3042
1479459958  7112
1479459958  5682
1479459958  -2129
1479459958  -9537
1479459958  -6567
1479459958  6727
1479459958  20482
1479459958  22433
1479459958  9939
1479459958  -4680
1479459958  -9205
1479459958  -4844
1479459958  -1361
1479459958  -5221
1479459958  -7943
1479459958  1
1479459958  16909
1479459958  26671
1479459958  17724
1479459958  -3871
1479459958  -19055
1479459958  -15143
1479459958  2161
1479459958  15291
1479459958  14150
1479459958  3901
1479459958  -5036
1479459958  -8882
1479459958  -11330
1479459958  -15197
1479459958  -15979
1479459958  -9573
1479459958  986
1479459958  7984
1479459958  2019
1479459958  -12262
1479459958  -22943
1479459958  -20478
1479459958  -7056
1479459958  7317
1479459958  10416
1479459958  -112
1479459958  -16727
1479459958  -27732
1479459958  -28651
1479459958  -21340
1479459958  -14253
1479459958  -11407
1479459958  -11510
1479459958  -9802
1479459958  -3861
1479459958  1062
1479459958  -1004
1479459958  -8641
1479459958  -15162
1479459958  -11025
1479459958  3562
1479459958  17411
1479459958  18876
1479459958  8898
1479459958  -600
1479459958  -558
1479459958  7131
1479459958  13138
1479459958  12531
1479459958  9183
1479459958  10453
1479459958  13611
1479459958  10780
1479459958  29
1479459958  -11738
1479459958  -13773
1479459958  -3771
1479459958  7870
1479459958  11231
1479459958  6329
1479459958  -658
1479459958  -3109
1479459958  -3127
1479459958  -4457
1479459958  -9413
1479459958  -13112
1479459958  -11052
1479459958  -2851
1479459958  6174
1479459958  11667
1479459958  9671
1479459958  2262
1479459958  -5651
1479459958  -8088
1479459958  -4644
1479459958  927
1479459958  3234
1479459958  -1713
1479459958  -10256
1479459958  -14141
1479459958  -10050
1479459958  -194
1479459958  7732
1479459958  9946
1479459958  6364
1479459958  970
1479459958  -1962
1479459958  -2198
1479459958  16
1479459958  1064
1479459958  -502
1479459958  -5104
1479459958  -7903
1479459958  -6484
1479459958  -256
1479459958  5996
1479459958  6681
1479459958  2435
1479459958  -3583
1479459958  -5609
1479459958  -3327
1479459958  1119
1479459958  2777
1479459958  -1623
1479459958  -9210
1479459958  -14763
1479459958  -14433
1479459958  -7250
1479459958  2120
1479459958  7298
1479459958  4205
1479459958  -4560
1479459958  -13087
1479459958  -15995
1479459958  -10787
1479459958  -1379
1479459958  5405
1479459958  4327
1479459958  -2952
1479459958  -11001
1479459958  -14372
1479459958  -10080
1479459958  -1403
1479459958  5482
1479459958  6039
1479459958  39
1479459958  -6980
1479459958  -9796
1479459958  -4959
1479459958  3998
1479459958  10264
1479459958  9470
1479459958  2436
1479459958  -4737
1479459958  -7631
1479459958  -3593
1479459958  4895
1479459958  12950
1479459958  15744
1479459958  10220
1479459958  -2373
1479459958  -18422
1479459958  -30702
1479459958  31114
1479459958  -28870
1479459958  -17247
1479459958  -4997
1479459958  3603
1479459958  4505
1479459958  -1863
1479459958  -13052
1479459958  -23273
1479459958  -25644
1479459958  -17092
1479459958  -1394
1479459958  9885
1479459958  8738
1479459958  -4325
1479459958  -19445
1479459958  -26144
1479459958  -22102
1479459958  -13397
1479459958  -6241
1479459958  -1628
1479459958  1706
1479459958  2378
1479459958  -2994
1479459958  -13418
1479459958  -21828
1479459958  -21494
1479459958  -13742
1479459958  -6366
1479459958  -4705
1479459958  -6494
1479459958  -6676
1479459958  -4490
1479459958  -4357
1479459958  -9200
1479459958  -16457
1479459958  -20544
1479459958  -18528
1479459958  -11950
1479459958  -4704
1479459958  -655
1479459958  -2583
1479459958  -10011
1479459958  -17944
1479459958  -19069
1479459958  -10987
1479459958  214
1479459958  5004
1479459958  50
1479459958  -8967
1479459958  -14624
1479459958  -15883
1479459958  -16540
1479459958  -17880
1479459958  -16196
1479459958  -9106
1479459958  -1354
1479459958  -757
1479459958  -8369
1479459958  -16756
1479459958  -18456
1479459958  -14683
1479459958  -12246
1479459958  -14071
1479459958  -15724
1479459958  -12727
1479459958  -7675
1479459958  -7303
1479459958  -12999
1479459958  -18557
1479459958  -17810
1479459958  -12803
1479459958  -10533
1479459958  -13628
1479459958  -17039
1479459958  -15544
1479459958  -11113
1479459958  -10278
1479459958  -14765
1479459958  -19054
1479459958  -17634
1479459958  -12795
1479459958  -11300
1479459958  -15281
1479459958  -19228
1479459958  -17723
1479459958  -12879
1479459958  -11491
1479459958  -15469
1479459958  -19330
1479459958  -17522
1479459958  -12370
1479459958  -10697
1479459958  -14603
1479459958  -18440
1479459958  -16703
1479459958  -11628
1479459958  -10228
1479459958  -14472
1479459958  -18641
1479459958  -16958
1479459958  -11570
1479459958  -9828
1479459958  -14210
1479459958  -18821
1479459958  -17430
1479459958  -11622
1479459958  -8889
1479459958  -12234
1479459958  -16531
1479459958  -15497
1479459958  -10319
1479459958  -7839
1479459958  -11113
1479459958  -15104
1479459958  -13617
1479459958  -7499
1479459958  -4080
1479459958  -7862
1479459958  -15636
1479459958  -20446
1479459958  -19081
1479459958  -13734
1479459958  -8233
1479459958  -5104
1479459958  -5768
1479459958  -10460
1479459958  -16423
1479459958  -17848
1479459958  -11253
1479459958  -289
1479459958  6328
1479459958  3446
1479459958  -5364
1479459958  -12257
1479459958  -13558
1479459958  -12103
1479459958  -11508
1479459958  -10914
1479459958  -6664
1479459958  1310
1479459958  7212
1479459958  4743
1479459958  -6769
1479459958  -21219
1479459958  -30767
1479459958  -31168
1479459958  -23343
1479459958  -11429
1479459958  -159
1479459958  6654
1479459958  6686
1479459958  121
1479459958  -10174
1479459958  -19375
1479459958  -23311
1479459958  -20793
1479459958  -14033
1479459958  -6853
1479459958  -2210
1479459958  -1051
1479459958  -2860
1479459958  -6551
1479459958  -10702
1479459958  -13610
1479459958  -13929
1479459958  -11713
1479459958  -8540
1479459958  -6308
1479459958  -5776
1479459958  -6318
1479459958  -6982
1479459958  -7467
1479459958  -8003
1479459958  -8600
1479459958  -8767
1479459958  -8151
1479459958  -7143
1479459958  -6536
1479459958  -6662
1479459958  -7049
1479459958  -7092
1479459958  -6811
1479459958  -6756
1479459958  -7188
1479459958  -7681
1479459958  -7679
1479459958  -7236
1479459958  -6903
1479459958  -6989
1479459958  -7150
1479459958  -6914
1479459958  -6389
1479459958  -6120
1479459958  -6319
1479459958  -6550
1479459958  -6320
1479459958  -5795
1479459958  -5597
1479459958  -5997
1479459958  -6531
1479459958  -6567
1479459958  -6122
1479459958  -5788
1479459958  -5980
1479459958  -6415
1479459958  -6489
1479459958  -6033
1479459958  -5480
1479459958  -5305
1479459958  -5511
1479459958  -5710
1479459958  -5681
1479459958  -5585
1479459958  -5667
1479459958  -5889
1479459958  -5976
1479459958  -5861
1479459958  -5790
1479459958  -5971
1479459958  -6207
1479459958  -6066
1479459958  -5505
1479459958  -5045
1479459958  -5144
1479459958  -5626
1479459958  -5804
1479459958  -5364
1479459958  -4788
1479459959  -4724
1479459959  -5168
1479459959  -5468
1479459959  -5221
1479459959  -4778
1479459959  -4741
1479459959  -5136
1479459959  -5375
1479459959  -5077
1479459959  -4603
1479459959  -4556
1479459959  -4973
1479459959  -5259
1479459959  -4973
1479459959  -4390
1479459959  -4132
1479459959  -4362
1479459959  -4626
1479459959  -4493
1479459959  -4105
1479459959  -3928
1479459959  -4120
1479459959  -4356
1479459959  -4326
1479459959  -4162
1479459959  -4179
1479459959  -4386
1479459959  -4428
1479459959  -4107
1479459959  -3753
1479459959  -3847
1479459959  -4363
1479459959  -4730
1479459959  -4492
1479459959  -3932
1479459959  -3719
1479459959  -4106
1479459959  -4613
1479459959  -4635
1479459959  -4217
1479459959  -3936
1479459959  -4133
1479459959  -4496
1479459959  -4523
1479459959  -4210
1479459959  -4013
1479459959  -4172
1479459959  -4386
1479459959  -4276
1479459959  -3999
1479459959  -4093
1479459959  -4739
1479459959  -5430
1479459959  -5557
1479459959  -5154
1479459959  -4845
1479459959  -5052
1479459959  -5495
1479459959  -5568
1479459959  -5137
1479459959  -4709
1479459959  -4763
1479459959  -5175
1479459959  -5378
1479459959  -5090
1479459959  -4660
1479459959  -4596
1479459959  -4919
1479459959  -5125
1479459959  -4880
1479459959  -4462
1479459959  -4399
1479459959  -4779
1479459959  -5104
1479459959  -4964
1479459959  -4599
1479459959  -4577
1479459959  -4991
1479459959  -5296
1479459959  -5066
1479459959  -4606
1479459959  -4573
1479459959  -5074
1479459959  -5470
1479459959  -5206
1479459959  -4574
1479459959  -4333
1479459959  -4744
1479459959  -5246
1479459959  -5207
1479459959  -4712
1479459959  -4363
1479459959  -4472
1479459959  -4709
1479459959  -4615
1479459959  -4251
1479459959  -4058
1479459959  -4264
1479459959  -4612
1479459959  -4723
1479459959  -4613
1479459959  -4626
1479459959  -4953
1479459959  -5340
1479459959  -5377
1479459959  -5037
1479459959  -4701
1479459959  -4708
1479459959  -4935
1479459959  -4972
1479459959  -4689
1479459959  -4408
1479459959  -4492
1479459959  -4832
1479459959  -4967
1479459959  -4738
1479459959  -4531
1479459959  -4778
1479459959  -5335
1479459959  -5595
1479459959  -5312
1479459959  -4967
1479459959  -5146
1479459959  -5757
1479459959  -6114
1479459959  -5833
1479459959  -5342
1479459959  -5288
1479459959  -5700
1479459959  -5974
1479459959  -5737
1479459959  -5390
1479459959  -5520
1479459959  -6096
1479459959  -6456
1479459959  -6198
1479459959  -5743
1479459959  -5788
1479459959  -6389
1479459959  -6835
1479459959  -6562
1479459959  -5876
1479459959  -5560
1479459959  -5925
1479459959  -6462
1479459959  -6504
1479459959  -6054
1479459959  -5687
1479459959  -5781
1479459959  -6055
1479459959  -6019
1479459959  -5664
1479459959  -5412
1479459959  -5539
1479459959  -5798
1479459959  -5783
1479459959  -5515
1479459959  -5389
1479459959  -5606
1479459959  -5838
1479459959  -5643
1479459959  -5070
1479459959  -4622
1479459959  -4605
1479459959  -4718
1479459959  -4443
1479459959  -3747
1479459959  -3132
1479459959  -3035
1479459959  -3330
1479459959  -3550
1479459959  -3558
1479459959  -3689
1479459959  -4233
1479459959  -4955
1479459959  -5336
1479459959  -5264
1479459959  -5169
1479459959  -5491
1479459959  -6146
1479459959  -6590
1479459959  -6517
1479459959  -6176
1479459959  -6011
1479459959  -6121
1479459959  -6223
1479459959  -6089
1479459959  -5830
1479459959  -5682
1479459959  -5615
1479459959  -5337
1479459959  -4772
1479459959  -4308
1479459959  -4362
1479459959  -4800
1479459959  -4965
1479459959  -4429
1479459959  -3553
1479459959  -3146
1479459959  -3523
1479459959  -4104
1479459959  -4135
1479459959  -3614
1479459959  -3229
1479459959  -3477
1479459959  -4012
1479459959  -4167
1479459959  -3848
1479459959  -3604
1479459959  -3826
1479459959  -4189
1479459959  -4110
1479459959  -3585
1479459959  -3193
1479459959  -3327
1479459959  -3693
1479459959  -3726
1479459959  -3416
1479459959  -3226
1479459959  -3422
1479459959  -3683
1479459959  -3598
1479459959  -3291
1479459959  -3246
1479459959  -3621
1479459959  -3951
1479459959  -3769
1479459959  -3265
1479459959  -3037
1479459959  -3302
1479459959  -3610
1479459959  -3422
1479459959  -2849
1479459959  -2505
1479459959  -2730
1479459959  -3193
1479459959  -3347
1479459959  -3155
1479459959  -3043
1479459959  -3247
1479459959  -3502
1479459959  -3412
1479459959  -3061
1479459959  -2922
1479459959  -3208
1479459959  -3554
1479459959  -3463
1479459959  -2963
1479459959  -2603
1479459959  -2792
1479459959  -3321
1479459959  -3623
1479459959  -3464
1479459959  -3174
1479459959  -3153
1479459959  -3402
1479459959  -3554
1479459959  -3403
1479459959  -3179
1479459959  -3199
1479459959  -3413
1479459959  -3419
1479459959  -3063
1479459959  -2720
1479459959  -2852
1479459959  -3388
1479459959  -3715
1479459959  -3412
1479459959  -2812
1479459959  -2590
1479459959  -2934
1479459959  -3325
1479459959  -3231
1479459959  -2827
1479459959  -2705
1479459959  -3042
1479459959  -3328
1479459959  -3070
1479459959  -2526
1479459959  -2372
1479459959  -2807
1479459959  -3252
1479459959  -3094
1479459959  -2510
1479459959  -2233
1479459959  -2623
1479459959  -3216
1479459959  -3324
1479459959  -2930
1479459959  -2613
1479459959  -2760
1479459959  -3088
1479459959  -3070
1479459959  -2719
1479459959  -2579
1479459959  -2975
1479459959  -3541
1479459959  -3626
1479459959  -3180
1479459959  -2859
1479459959  -3209
1479459959  -3961
1479459959  -4309
1479459959  -3939
1479459959  -3410
1479459959  -3447
1479459959  -4025
1479459959  -4422
1479459959  -4191
1479459959  -3718
1479459959  -3669
1479459959  -4135
1479459959  -4546
1479459959  -4512
1479459959  -4330
1479459959  -4534
1479459959  -5150
1479459959  -5625
1479459959  -5570
1479459959  -5262
1479459959  -5238
1479459959  -5603
1479459959  -5906
1479459959  -5789
1479459959  -5480
1479459959  -5455
1479459959  -5829
1479459959  -6208
1479459959  -6232
1479459959  -6050
1479459959  -6096
1479459959  -6510
1479459959  -6932
1479459959  -6960
1479459959  -6697
1479459959  -6598
1479459959  -6889
1479459959  -7283
1479459959  -7361
1479459959  -7118
1479459959  -6938
1479459959  -7077
1479459959  -7315
1479459959  -7272
1479459959  -6997
1479459959  -6870
1479459959  -7071
1479459959  -7271
1479459959  -7035
1479459959  -6476
1479459959  -6202
1479459959  -6527
1479459959  -6986
1479459959  -6879
1479459959  -6213
1479459959  -5783
1479459959  -6200
1479459959  -7075
1479459959  -7412
1479459959  -6861
1479459959  -6131
1479459959  -6114
1479459959  -6745
1479459959  -7085
1479459959  -6574
1479459959  -5760
1479459959  -5571
1479459959  -6116
1479459959  -6556
1479459959  -6237
1479459959  -5565
1479459959  -5458
1479459959  -6135
1479459959  -6822
1479459959  -6780
1479459959  -6214
1479459959  -5936
1479459959  -6281
1479459959  -6716
1479459959  -6633
1479459959  -6175
1479459959  -5939
1479459959  -6130
1479459959  -6306
1479459959  -6062
1479459959  -5652
1479459959  -5628
1479459959  -6024
1479459959  -6270
1479459959  -5983
1479459959  -5508
1479459959  -5490
1479459959  -5987
1479459959  -6383
1479459959  -6200
1479459959  -5754
1479459959  -5686
1479459959  -6091
1479459959  -6352
1479459959  -5995
1479459959  -5368
1479459959  -5211
1479459959  -5667
1479459959  -6047
1479459959  -5723
1479459959  -4964
1479459959  -4620
1479459959  -5033
1479459959  -5598
1479459959  -5521
1479459959  -4846
1479459959  -4353
1479459959  -4588
1479459959  -5215
1479459959  -5480
1479459959  -5191
1479459959  -4892
1479459959  -5080
1479459959  -5572
1479459959  -5796
1479459959  -5567
1479459959  -5281
1479459959  -5357
1479459959  -5664
1479459959  -5710
1479459959  -5311
1479459959  -4859
1479459959  -4825
1479459959  -5140
1479459959  -5282
1479459959  -4946
1479459959  -4426
1479459959  -4263
1479459959  -4596
1479459959  -4992
1479459959  -5008
1479459959  -4708
1479459959  -4567
1479459959  -4848
1479459959  -5262
1479459959  -5378
1479459959  -5136
1479459959  -4881
1479459959  -4897
1479459959  -5046
1479459959  -5036
1479459959  -4898
1479459959  -4925
1479459959  -5247
1479459959  -5557
1479459959  -5502
1479459959  -5196
1479459959  -5103
1479459959  -5410
1479459959  -5731
1479459959  -5583
1479459959  -5047
1479459959  -4705
1479459959  -4939
1479459959  -5436
1479459959  -5613
1479459959  -5360
1479459959  -5122
1479459959  -5263
1479459959  -5556
1479459959  -5560
1479459959  -5260
1479459959  -5071
1479459959  -5239
1479459959  -5473
1479459959  -5340
1479459959  -4929
1479459959  -4775
1479459959  -5129
1479459959  -5553
1479459959  -5451
1479459959  -4892
1479459959  -4535
1479459959  -4821
1479459959  -5397
1479459959  -5513
1479459959  -4977
1479459959  -4376
1479459959  -4375
1479459959  -4942
1479459959  -5422
1479459959  -5366
1479459959  -5031
1479459959  -4972
1479459959  -5303
1479459959  -5579
1479459959  -5438
1479459959  -5055
1479459959  -4886
1479459959  -5042
1479459959  -5165
1479459959  -4994
1479459959  -4772
1479459959  -4912
1479459959  -5400
1479459959  -5717
1479459959  -5553
1479459959  -5213
1479459959  -5243
1479459959  -5680
1479459959  -5961
1479459959  -5680
1479459959  -5183
1479459960  -5133
1479459960  -5639
1479459960  -6091
1479459960  -5964
1479459960  -5512
1479459960  -5397
1479459960  -5783
1479459960  -6084
1479459960  -5771
1479459960  -5148
1479459960  -4974
1479459960  -5472
1479459960  -5980
1479459960  -5813
1479459960  -5185
1479459960  -4942
1479459960  -5456
1479459960  -6127
1479459960  -6163
1479459960  -5598
1479459960  -5208
1479459960  -5489
1479459960  -6019
1479459960  -6055
1479459960  -5549
1479459960  -5197
1479459960  -5496
1479459960  -6087
1479459960  -6207
1479459960  -5719
1479459960  -5267
1479459960  -5448
1479459960  -6034
1479459960  -6289
1479459960  -5929
1479459960  -5432
1479459960  -5374
1479459960  -5711
1479459960  -5899
1479459960  -5708
1479459960  -5510
1479459960  -5728
1479459960  -6204
1479459960  -6372
1479459960  -6031
1479459960  -5642
1479459960  -5725
1479459960  -6168
1479459960  -6384
1479459960  -6102
1479459960  -5719
1479459960  -5756
1479459960  -6179
1479459960  -6447
1479459960  -6271
1479459960  -5985
1479459960  -6055
1479459960  -6427
1479459960  -6578
1479459960  -6234
1479459960  -5776
1479459960  -5730
1479459960  -6076
1479459960  -6267
1479459960  -5975
1479459960  -5568
1479459960  -5612
1479459960  -6126
1479459960  -6520
1479459960  -6404
1479459960  -6107
1479459960  -6228
1479459960  -6783
1479459960  -7100
1479459960  -6712
1479459960  -6054
1479459960  -5938
1479459960  -6511
1479459960  -7015
1479459960  -6757
1479459960  -6060
1479459960  -5867
1479459960  -6518
1479459960  -7274
1479459960  -7222
1479459960  -6445
1479459960  -5908
1479459960  -6243
1479459960  -6980
1479459960  -7171
1479459960  -6623
1479459960  -6079
1479459960  -6223
1479459960  -6861
1479459960  -7213
1479459960  -6966
1479459960  -6609
1479459960  -6749
1479459960  -7295
1479459960  -7617
1479459960  -7431
1479459960  -7125
1479459960  -7194
1479459960  -7583
1479459960  -7767
1479459960  -7478
1479459960  -7064
1479459960  -7028
1479459960  -7380
1479459960  -7667
1479459960  -7619
1479459960  -7472
1479459960  -7583
1479459960  -7936
1479459960  -8143
1479459960  -7990
1479459960  -7712
1479459960  -7650
1479459960  -7792
1479459960  -7797
1479459960  -7485
1479459960  -7136
1479459960  -7125
1479459960  -7463
1479459960  -7753
1479459960  -7678
1479459960  -7374
1479459960  -7221
1479459960  -7364
1479459960  -7564
1479459960  -7522
1479459960  -7269
1479459960  -7072
1479459960  -7133
1479459960  -7340
1479459960  -7471
1479459960  -7475
1479459960  -7441
1479459960  -7411
1479459960  -7284
1479459960  -6968
1479459960  -6587
1479459960  -6344
1479459960  -6226
1479459960  -5992
1479459960  -5506
1479459960  -4992
1479459960  -4794
1479459960  -4966
1479459960  -5202
1479459960  -5216
1479459960  -5135
1479459960  -5351
1479459960  -5994
1479459960  -6737
1479459960  -7161
1479459960  -7283
1479459960  -7491
1479459960  -8026
1479459960  -8669
1479459960  -8985
1479459960  -8892
1479459960  -8745
1479459960  -8888
1479459960  -9236
1479459960  -9389
1479459960  -9181
1479459960  -8878
1479459960  -8816
1479459960  -8972
1479459960  -8958
1479459960  -8591
1479459960  -8165
1479459960  -8093
1479459960  -8343
1479459960  -8458
1479459960  -8150
1479459960  -7685
1479459960  -7548
1479459960  -7828
1479459960  -8119
1479459960  -8084
1479459960  -7912
1479459960  -7988
1479459960  -8302
1479459960  -8422
1479459960  -8085
1479459960  -7643
1479459960  -7635
1479459960  -8048
1479459960  -8295
1479459960  -8001
1479459960  -7531
1479459960  -7520
1479459960  -8051
1479459960  -8531
1479459960  -8438
1479459960  -8000
1479459960  -7867
1479459960  -8235
1479459960  -8587
1479459960  -8394
1479459960  -7852
1479459960  -7618
1479459960  -7995
1479459960  -8529
1479459960  -8574
1479459960  -8126
1479459960  -7770
1479459960  -7914
1479459960  -8275
1479459960  -8300
1479459960  -7928
1479459960  -7635
1479459960  -7797
1479459960  -8199
1479459960  -8342
1479459960  -8129
1479459960  -7967
1479459960  -8160
1479459960  -8479
1479459960  -8479
1479459960  -8126
1479459960  -7877
1479459960  -8029
1479459960  -8300
1479459960  -8216
1479459960  -7825
1479459960  -7696
1479459960  -8158
1479459960  -8799
1479459960  -8908
1479459960  -8414
1479459960  -8040
1479459960  -8385
1479459960  -9151
1479459960  -9519
1479459960  -9168
1479459960  -8681
1479459960  -8773
1479459960  -9403
1479459960  -9889
1479459960  -9848
1479459960  -9692
1479459960  -9990
1479459960  -10661
1479459960  -11071
1479459960  -10883
1479459960  -10555
1479459960  -10727
1479459960  -11361
1479459960  -11781
1479459960  -11572
1479459960  -11159
1479459960  -11266
1479459960  -11964
1479459960  -12555
1479459960  -12452
1479459960  -11933
1479459960  -11762
1479459960  -12206
1479459960  -12740
1479459960  -12738
1479459960  -12301
1479459960  -12082
1479459960  -12425
1479459960  -12934
1479459960  -13001
1479459960  -12621
1479459960  -12378
1479459960  -12650
1479459960  -13108
1479459960  -13171
1479459960  -12783
1479459960  -12511
1479459960  -12768
1479459960  -13253
1479459960  -13366
1479459960  -13004
1479459960  -12686
1479459960  -12842
1479459960  -13250
1479459960  -13358
1479459960  -13045
1479459960  -12767
1479459960  -12907
1479459960  -13263
1479459960  -13380
1479459960  -13192
1479459960  -13094
1479459960  -13373
1479459960  -13750
1479459960  -13757
1479459960  -13380
