timestamp: ADC
1479459724  346
1479459724  383
1479459724  404
1479459724  412
1479459724  410
1479459724  418
1479459724  444
1479459724  471
1479459724  477
1479459724  472
1479459724  495
1479459724  563
1479459724  648
1479459724  715
1479459724  778
1479459724  894
1479459724  1105
1479459724  1383
1479459724  1942
1479459724  2227
1479459724  2559
1479459724  2924
1479459724  3285
1479459724  3621
1479459724  4245
1479459724  4490
1479459724  4617
1479459724  -2124
1479459724  1670
1479459724  -1967
1479459724  -1800
1479459724  -1648
1479459724  -1277
1479459724  -1022
1479459724  -593
1479459724  -482
1479459724  -394
1479459724  -275
1479459724  -130
1479459724  -10
1479459724  42
1479459724  45
1479459724  55
1479459724  108
1479459724  228
1479459724  181
1479459724  231
1479459724  202
1479459724  212
1479459724  241
1479459724  228
1479459724  248
1479459724  256
1479459724  271
1479459724  290
1479459724  302
1479459724  305
1479459724  304
1479459724  305
1479459724  323
1479459724  321
1479459724  405
1479459724  291
1479459724  504
1479459724  567
1479459724  606
1479459724  587
1479459724  658
1479459724  731
1479459724  777
1479459724  772
1479459724  734
1479459724  703
1479459724  696
1479459724  701
1479459724  701
1479459724  693
1479459724  689
1479459724  695
1479459724  703
1479459724  697
1479459724  698
1479459725  713
1479459725  723
1479459725  705
1479459725  668
1479459725  659
1479459725  721
1479459725  829
1479459725  901
1479459725  885
1479459725  818
1479459725  782
1479459725  807
1479459725  839
1479459725  807
1479459725  712
1479459725  620
1479459725  582
1479459725  593
1479459725  616
1479459725  639
1479459725  665
1479459725  676
1479459725  641
1479459725  558
1479459725  473
1479459725  428
1479459725  416
1479459725  387
1479459725  317
1479459725  232
1479459725  186
1479459725  200
1479459725  295
1479459725  249
1479459725  320
1479459725  330
1479459725  335
1479459725  336
1479459725  331
1479459725  323
1479459725  314
1479459725  309
1479459725  312
1479459725  322
1479459725  334
1479459725  341
1479459725  348
1479459725  360
1479459725  379
1479459725  394
1479459725  399
1479459725  442
1479459725  402
1479459725  417
1479459725  459
1479459725  460
1479459725  499
1479459725  576
1479459725  657
1479459725  717
1479459725  782
1479459725  911
1479459725  1136
1479459725  1423
1479459725  1712
1479459725  1983
1479459725  2267
1479459725  2603
1479459725  2978
1479459725  3681
1479459725  3986
1479459725  3348
1479459725  4270
1479459725  4498
1479459725  4609
1479459725  4578
1479459725  4421
1479459725  4173
1479459725  3823
1479459725  3333
1479459725  2698
1479459725  1972
1479459725  1233
1479459725  534
1479459725  -700
1479459725  -1215
1479459725  -1632
1479459725  -111
1479459725  -1942
1479459725  -2147
1479459725  -2247
1479459725  -2234
1479459725  -2123
1479459725  -1960
1479459725  -1796
1479459725  -1643
1479459725  -1469
1479459725  -1246
1479459725  -987
1479459725  -752
1479459725  -588
1479459725  -388
1479459725  -484
1479459725  -122
1479459725  -21
1479459725  18
1479459725  24
1479459725  109
1479459725  175
1479459725  210
1479459725  206
1479459725  194
1479459725  195
1479459725  209
1479459725  221
1479459725  226
1479459725  231
1479459725  247
1479459725  269
1479459725  286
1479459725  290
1479459725  287
1479459725  289
1479459725  299
1479459725  309
1479459725  303
1479459725  284
1479459725  284
1479459725  419
1479459725  332
1479459725  505
1479459725  555
1479459725  575
1479459725  603
1479459725  660
1479459725  722
1479459725  752
1479459725  738
1479459725  703
1479459725  680
1479459725  678
1479459725  683
1479459725  679
1479459725  668
1479459725  665
1479459725  675
1479459725  687
1479459725  686
1479459725  676
1479459725  675
1479459725  687
1479459725  693
1479459725  671
1479459725  634
1479459725  636
1479459725  595
1479459725  509
1479459725  431
1479459725  398
1479459725  389
1479459725  354
1479459725  278
1479459725  201
1479459725  192
1479459725  237
1479459725  278
1479459725  304
1479459725  319
1479459725  317
1479459725  312
1479459725  303
1479459725  298
1479459725  296
1479459725  293
1479459725  293
1479459725  303
1479459725  318
1479459725  327
1479459725  331
1479459725  343
1479459725  366
1479459725  387
1479459725  389
1479459725  385
1479459725  399
1479459725  432
1479459725  458
1479459725  458
1479459725  459
1479459725  585
1479459725  502
1479459725  669
1479459725  728
1479459725  802
1479459725  953
1479459725  1199
1479459725  1490
1479459725  1772
1479459725  2041
1479459725  2338
1479459725  2684
1479459725  3053
1479459725  3407
1479459725  3733
1479459725  4046
1479459725  4329
1479459725  4531
1479459725  4604
1479459725  4544
1479459725  4376
1479459725  4116
1479459725  3207
1479459725  2547
1479459725  1084
1479459725  1817
1479459725  390
1479459725  -251
1479459725  -826
1479459725  -1316
1479459725  -1704
1479459725  -1989
1479459725  -2175
1479459725  -2253
1479459725  -2218
1479459725  -2092
1479459725  -1924
1479459725  -1760
1479459725  -1605
1479459725  -1422
1479459725  -703
1479459725  -1188
1479459725  -927
1479459725  -553
1479459725  -455
1479459725  -218
1479459725  -81
1479459725  7
1479459725  -353
1479459725  31
1479459725  35
1479459725  67
1479459725  132
1479459725  215
1479459725  203
1479459725  189
1479459725  193
1479459725  211
1479459725  225
1479459725  230
1479459725  250
1479459725  234
1479459725  273
1479459725  290
1479459725  293
1479459725  287
1479459725  290
1479459725  304
1479459725  315
1479459725  304
1479459725  280
1479459725  281
1479459725  336
1479459725  429
1479459725  511
1479459725  553
1479459725  572
1479459725  606
1479459725  668
1479459725  728
1479459725  737
1479459725  753
1479459725  704
1479459725  683
1479459725  679
1479459725  680
1479459725  673
1479459725  662
1479459725  659
1479459725  669
1479459725  679
1479459725  669
1479459725  675
1479459725  696
1479459725  704
1479459725  676
1479459725  639
1479459725  654
1479459725  747
1479459725  858
1479459725  894
1479459725  838
1479459725  766
1479459725  760
1479459725  808
1479459725  825
1479459725  761
1479459725  656
1479459725  587
1479459725  581
1479459725  606
1479459725  629
1479459725  650
1479459725  671
1479459725  666
1479459725  610
1479459725  520
1479459725  449
1479459725  423
1479459725  411
1479459725  366
1479459725  285
1479459725  213
1479459725  194
1479459725  224
1479459725  271
1479459725  307
1479459725  327
1479459725  337
1479459725  339
1479459725  332
1479459725  321
1479459725  310
1479459725  305
1479459725  304
1479459725  309
1479459725  319
1479459725  329
1479459725  357
1479459725  342
1479459725  334
1479459725  378
1479459725  392
1479459725  395
1479459725  400
1479459725  420
1479459725  446
1479459725  458
1479459725  455
1479459725  467
1479459725  520
1479459725  601
1479459725  672
1479459725  728
1479459725  816
1479459725  990
1479459725  1252
1479459725  1546
1479459725  1827
1479459725  2102
1479459725  2411
1479459725  2770
1479459725  3144
1479459725  3492
1479459725  3812
1479459725  4117
1479459725  4391
1479459725  4574
1479459725  4618
1479459725  4529
1479459725  4340
1479459725  4063
1479459725  3658
1479459725  3097
1479459725  2410
1479459725  1672
1479459725  948
1479459725  266
1479459725  -367
1479459725  -930
1479459725  -1399
1479459725  -1760
1479459725  -2023
1479459725  -2190
1479459725  -2244
1479459725  -2028
1479459725  -2178
1479459725  -1858
1479459725  -1707
1479459725  -1557
1479459725  -1365
1479459725  -1117
1479459725  -859
1479459725  -655
1479459725  -326
1479459725  -526
1479459725  -435
1479459725  -187
1479459725  -58
1479459725  16
1479459725  43
1479459725  35
1479459725  82
1479459725  149
1479459725  204
1479459725  218
1479459725  201
1479459725  186
1479459725  189
1479459725  206
1479459725  219
1479459725  225
1479459725  232
1479459725  250
1479459725  274
1479459725  290
1479459725  291
1479459725  284
1479459725  287
1479459725  302
1479459725  309
1479459725  295
1479459725  274
1479459725  289
1479459725  358
1479459725  455
1479459725  685
1479459725  675
1479459725  683
1479459725  705
1479459725  676
1479459725  645
1479459725  709
1479459725  676
1479459725  778
1479459725  877
1479459725  892
1479459725  828
1479459725  768
1479459725  773
1479459725  815
1479459725  815
1479459725  739
1479459725  637
1479459725  576
1479459725  573
1479459725  598
1479459725  625
1479459725  652
1479459725  671
1479459725  653
1479459725  586
1479459725  498
1479459725  437
1479459725  418
1479459725  401
1479459725  348
1479459725  264
1479459725  201
1479459725  193
1479459725  231
1479459725  280
1479459725  314
1479459725  333
1479459725  342
1479459725  342
1479459725  332
1479459725  315
1479459725  302
1479459725  300
1479459725  303
1479459725  309
1479459725  315
1479459725  320
1479459725  327
1479459725  339
1479459725  359
1479459726  379
1479459726  389
1479459726  403
1479459726  392
1479459726  427
1479459726  452
1479459726  460
1479459726  461
1479459726  489
1479459726  556
1479459726  637
1479459726  700
1479459726  757
1479459726  865
1479459726  1063
1479459726  1333
1479459726  1617
1479459726  1889
1479459726  2172
1479459726  2498
1479459726  3226
1479459726  3566
1479459726  3886
1479459726  4191
1479459726  4448
1479459726  4597
1479459726  4610
1479459726  2862
1479459726  4501
1479459726  4296
1479459726  3993
1479459726  3552
1479459726  659
1479459726  1528
1479459726  137
1479459726  -479
1479459726  -1020
1479459726  -1470
1479459726  -1817
1479459726  -2061
1479459726  -2200
1479459726  -2141
1479459726  -2223
1479459726  -1993
1479459726  -1828
1479459726  -1672
1479459726  -1508
1479459726  -621
1479459726  -498
1479459726  -7941
1479459726  -811
1479459726  -404
1479459726  -289
1479459726  -148
1479459726  -25
1479459726  39
1479459726  51
1479459726  61
1479459726  107
1479459726  177
1479459726  229
1479459726  239
1479459726  225
1479459726  213
1479459726  218
1479459726  232
1479459726  242
1479459726  248
1479459726  255
1479459726  271
1479459726  290
1479459726  301
1479459726  300
1479459726  295
1479459726  298
1479459726  312
1479459726  319
1479459726  305
1479459726  291
1479459726  316
1479459726  393
1479459726  490
1479459726  11522
1479459726  582
1479459726  645
1479459726  763
1479459726  765
1479459726  701
1479459726  695
1479459726  732
1479459726  703
1479459726  703
1479459726  688
1479459726  674
1479459726  678
1479459726  695
1479459726  705
1479459726  699
1479459726  714
1479459726  682
1479459726  719
1479459726  663
1479459726  708
1479459726  811
1479459726  894
1479459726  891
1479459726  824
1479459726  796
1479459726  777
1479459726  835
1479459726  816
1479459726  726
1479459726  628
1479459726  595
1479459726  624
1479459726  647
1479459726  668
1479459726  584
1479459726  679
1479459726  654
1479459726  582
1479459726  331
1479459726  333
1479459726  337
1479459726  343
1479459726  350
1479459726  360
1479459726  377
1479459726  398
1479459726  415
1479459726  419
1479459726  419
1479459726  433
1479459726  461
1479459726  485
1479459726  489
1479459726  488
1479459726  516
1479459726  582
1479459726  657
1479459726  716
1479459726  782
1479459726  908
1479459726  1124
1479459726  1401
1479459726  1685
1479459726  1957
1479459726  2245
1479459726  2579
1479459726  2947
1479459726  3310
1479459726  3644
1479459726  3960
1479459726  4257
1479459726  4496
1479459726  4619
1479459726  4601
1479459726  4466
1479459726  4240
1479459726  3909
1479459726  3433
1479459726  2809
1479459726  2091
1479459726  1354
1479459726  648
1479459726  -11
1479459726  -614
1479459726  -1143
1479459726  -1896
1479459726  -2117
1479459726  -2234
1479459726  -1573
1479459726  -2239
1479459726  -1987
1479459726  -2143
1479459726  -1819
1479459726  -1663
1479459726  -1495
1479459726  -1285
1479459726  -782
1479459726  -1029
1479459726  -600
1479459726  -490
1479459726  -404
1479459726  -289
1479459726  -147
1479459726  -30
1479459726  20
1479459726  25
1479459726  39
1479459726  92
1479459726  159
1479459726  199
1479459726  181
1479459726  187
1479459726  190
1479459726  201
1479459726  211
1479459726  221
1479459726  234
1479459726  253
1479459726  269
1479459726  278
1479459726  277
1479459726  276
1479459726  284
1479459726  298
1479459726  301
1479459726  285
1479459726  274
1479459726  307
1479459726  391
1479459726  487
1479459726  549
1479459726  572
1479459726  593
1479459726  644
1479459726  710
1479459726  753
1479459726  751
1479459726  718
1479459726  687
1479459726  675
1479459726  677
1479459726  680
1479459726  676
1479459726  673
1479459726  678
1479459726  685
1479459726  684
1479459726  677
1479459726  682
1479459726  703
1479459726  717
1479459726  697
1479459726  652
1479459726  641
1479459726  708
1479459726  821
1479459726  889
1479459726  861
1479459726  783
1479459726  747
1479459726  814
1479459726  778
1479459726  590
1479459726  680
1479459726  560
1479459726  574
1479459726  597
1479459726  618
1479459726  643
1479459726  656
1479459726  620
1479459726  536
1479459726  449
1479459726  408
1479459726  402
1479459726  379
1479459726  311
1479459726  228
1479459726  183
1479459726  197
1479459726  245
1479459726  289
1479459726  332
1479459726  327
1479459726  316
1479459726  328
1479459726  302
1479459726  298
1479459726  303
1479459726  311
1479459726  318
1479459726  321
1479459726  323
1479459726  332
1479459726  354
1479459726  382
1479459726  400
1479459726  400
1479459726  397
1479459726  410
1479459726  439
1479459726  460
1479459726  461
1479459726  460
1479459726  496
1479459726  780
1479459726  920
1479459726  1154
1479459726  1442
1479459726  570
1479459726  1729
1479459726  2002
1479459726  2295
1479459726  2638
1479459726  3011
1479459726  3372
1479459726  3702
1479459726  4012
1479459726  4298
1479459726  4516
1479459726  4609
1479459726  4563
1479459726  4405
1479459726  4160
1479459726  3803
1479459726  3299
1479459726  2651
1479459726  1923
1479459726  1189
1479459726  492
1479459726  -156
1479459726  -744
1479459726  -1250
1479459726  -1653
1479459726  -2151
1479459726  -2245
1479459726  -2226
1479459726  -2110
1479459726  -1944
1479459726  -1780
1479459726  -1627
1479459726  -1455
1479459726  -1236
1479459726  -980
1479459726  -746
1479459726  -579
1479459726  -473
1479459726  -377
1479459726  -251
1479459726  -112
1479459726  -11
1479459726  25
1479459726  28
1479459726  50
1479459726  109
1479459726  173
1479459726  204
1479459726  198
1479459726  185
1479459726  186
1479459726  200
1479459726  213
1479459726  219
1479459726  225
1479459726  238
1479459726  258
1479459726  278
1479459726  288
1479459726  288
1479459726  287
1479459726  295
1479459726  307
1479459726  306
1479459726  288
1479459726  283
1479459726  327
1479459726  419
1479459726  514
1479459726  568
1479459726  584
1479459726  606
1479459726  665
1479459726  735
1479459726  769
1479459726  750
1479459726  706
1479459726  681
1479459726  685
1479459726  694
1479459726  688
1479459726  670
1479459726  665
1479459726  681
1479459726  698
1479459726  695
1479459726  682
1479459726  684
1479459726  706
1479459726  716
1479459726  687
1479459726  643
1479459726  648
1479459726  734
1479459726  887
1479459726  838
1479459726  767
1479459726  756
1479459726  820
1479459726  800
1479459726  761
1479459726  658
1479459726  582
1479459726  567
1479459726  586
1479459726  608
1479459726  630
1479459726  654
1479459726  656
1479459726  609
1479459726  524
1479459726  449
1479459726  418
1479459726  409
1479459726  374
1479459726  300
1479459726  223
1479459726  191
1479459726  215
1479459726  263
1479459726  301
1479459726  320
1479459726  329
1479459726  337
1479459726  340
1479459726  331
1479459726  314
1479459726  304
1479459726  310
1479459726  325
1479459726  336
1479459726  335
1479459726  331
1479459726  341
1479459726  370
1479459726  400
1479459726  412
1479459726  409
1479459726  438
1479459726  413
1479459726  467
1479459726  477
1479459726  471
1479459726  482
1479459726  679
1479459726  536
1479459726  728
1479459726  810
1479459726  976
1479459726  1225
1479459726  1787
1479459726  2064
1479459726  2372
1479459726  2724
1479459726  3090
1479459726  3439
1479459726  3766
1479459726  4080
1479459726  4361
1479459726  4557
1479459726  4621
1479459726  4551
1479459726  4376
1479459726  4111
1479459726  3726
1479459726  3191
1479459726  2521
1479459726  1784
1479459726  1051
1479459726  365
1479459726  -269
1479459726  -843
1479459726  -1337
1479459726  -1726
1479459726  -2003
1479459726  -2174
1479459726  -2239
1479459726  -2201
1479459726  -2076
1479459726  -1907
1479459726  -1736
1479459726  -1572
1479459727  193
1479459727  209
1479459727  226
1479459727  228
1479459727  246
1479459727  273
1479459727  292
1479459727  290
1479459727  279
1479459727  281
1479459727  303
1479459727  321
1479459727  310
1479459727  283
1479459727  287
1479459727  352
1479459727  454
1479459727  533
1479459727  564
1479459727  577
1479459727  615
1479459727  683
1479459727  741
1479459727  755
1479459727  732
1479459727  704
1479459727  693
1479459727  694
1479459727  683
1479459727  675
1479459727  678
1479459727  687
1479459727  689
1479459727  706
1479459727  704
1479459727  675
1479459727  647
1479459727  674
1479459727  765
1479459727  864
1479459727  892
1479459727  839
1479459727  775
1479459727  769
1479459727  807
1479459727  817
1479459727  754
1479459727  653
1479459727  581
1479459727  569
1479459727  594
1479459727  626
1479459727  653
1479459727  668
1479459727  651
1479459727  591
1479459727  508
1479459727  445
1479459727  418
1479459727  398
1479459727  350
1479459727  274
1479459727  211
1479459727  193
1479459727  219
1479459727  263
1479459727  302
1479459727  326
1479459727  337
1479459727  337
1479459727  329
1479459727  319
1479459727  310
1479459727  305
1479459727  300
1479459727  304
1479459727  316
1479459727  328
1479459727  332
1479459727  335
1479459727  349
1479459727  374
1479459727  394
1479459727  399
1479459727  400
1479459727  418
1479459727  448
1479459727  465
1479459727  465
1479459727  478
1479459727  533
1479459727  616
1479459727  687
1479459727  742
1479459727  832
1479459727  1281
1479459727  1574
1479459727  1848
1479459727  2122
1479459727  2440
1479459727  2807
1479459727  3179
1479459727  3522
1479459727  3839
1479459727  4146
1479459727  4414
1479459727  4582
1479459727  4610
1479459727  4515
1479459727  3622
1479459727  3040
1479459727  2346
1479459727  4328
1479459727  1613
1479459727  4045
1479459727  897
1479459727  218
1479459727  -414
1479459727  -974
1479459727  -1438
1479459727  -1796
1479459727  -2053
1479459727  -2208
1479459727  -2250
1479459727  -2180
1479459727  -2038
1479459727  -1874
1479459727  -1717
1479459727  -1555
1479459727  -1359
1479459727  -1119
1479459727  -870
1479459727  -665
1479459727  -529
1479459727  -434
1479459727  -332
1479459727  -199
1479459727  -71
1479459727  6
1479459727  25
1479459727  29
1479459727  66
1479459727  134
1479459727  191
1479459727  207
1479459727  193
1479459727  189
1479459727  182
1479459727  204
1479459727  213
1479459727  216
1479459727  223
1479459727  241
1479459727  260
1479459727  270
1479459727  267
1479459727  264
1479459727  288
1479459727  273
1479459727  294
1479459727  280
1479459727  267
1479459727  288
1479459727  358
1479459727  450
1479459727  521
1479459727  556
1479459727  581
1479459727  624
1479459727  684
1479459727  732
1479459727  744
1479459727  722
1479459727  692
1479459727  677
1479459727  677
1479459727  673
1479459727  664
1479459727  680
1479459727  665
1479459727  677
1479459727  684
1479459727  676
1479459727  667
1479459727  676
1479459727  696
1479459727  694
1479459727  657
1479459727  629
1479459727  668
1479459727  775
1479459727  868
1479459727  872
1479459727  801
1479459727  745
1479459727  758
1479459727  799
1479459727  789
1479459727  705
1479459727  605
1479459727  551
1479459727  551
1479459727  572
1479459727  595
1479459727  622
1479459727  643
1479459727  625
1479459727  553
1479459727  461
1479459727  405
1479459727  394
1479459727  381
1479459727  324
1479459727  237
1479459727  175
1479459727  173
1479459727  214
1479459727  260
1479459727  304
1479459727  288
1479459727  316
1479459727  320
1479459727  310
1479459727  294
1479459727  288
1479459727  294
1479459727  300
1479459727  300
1479459727  301
1479459727  306
1479459727  319
1479459727  334
1479459727  349
1479459727  365
1479459727  376
1479459727  384
1479459727  394
1479459727  410
1479459727  427
1479459727  438
1479459727  448
1479459727  476
1479459727  532
1479459727  602
1479459727  666
1479459727  737
1479459727  855
1479459727  1053
1479459727  1319
1479459727  1606
1479459727  2175
1479459727  2498
1479459727  3221
1479459727  2856
1479459727  3565
1479459727  1888
1479459727  3887
1479459727  4186
1479459727  4380
1479459727  4573
1479459727  4578
1479459727  4461
1479459727  4244
1479459727  3925
1479459727  2873
1479459727  2167
1479459727  1424
1479459727  705
1479459727  39
1479459727  -567
1479459727  -1100
1479459727  -1542
1479459727  -1881
1479459727  -2114
1479459727  -2240
1479459727  -2253
1479459727  -2165
1479459727  -2015
1479459727  -1850
1479459727  -1693
1479459727  -1528
1479459727  -1323
1479459727  -1075
1479459727  -829
1479459727  -640
1479459727  -526
1479459727  -440
1479459727  -329
1479459727  -187
1479459727  -63
1479459727  -5
1479459727  1
1479459727  13
1479459727  67
1479459727  142
1479459727  187
1479459727  166
1479459727  185
1479459727  160
1479459727  172
1479459727  184
1479459727  188
1479459727  192
1479459727  208
1479459727  233
1479459727  254
1479459727  262
1479459727  261
1479459727  262
1479459727  273
1479459727  286
1479459727  285
1479459727  267
1479459727  257
1479459727  289
1479459727  368
1479459727  460
1479459727  523
1479459727  550
1479459727  572
1479459727  619
1479459727  683
1479459727  732
1479459727  738
1479459727  708
1479459727  655
1479459727  672
1479459727  659
1479459727  665
1479459727  659
1479459727  648
1479459727  646
1479459727  657
1479459727  667
1479459727  663
1479459727  657
1479459727  664
1479459727  680
1479459727  649
1479459727  681
1479459727  627
1479459727  777
1479459727  671
1479459727  743
1479459727  762
1479459727  805
1479459727  791
1479459727  601
1479459727  702
1479459727  556
1479459727  605
1479459727  630
1479459727  644
1479459727  646
1479459727  616
1479459727  547
1479459727  467
1479459727  414
1479459727  369
1479459727  312
1479459727  235
1479459727  180
1479459727  178
1479459727  218
1479459727  270
1479459727  307
1479459727  321
1479459727  319
1479459727  312
1479459727  305
1479459727  300
1479459727  292
1479459727  283
1479459727  281
1479459727  292
1479459727  308
1479459727  317
1479459727  317
1479459727  326
1479459727  350
1479459727  378
1479459727  390
1479459727  388
1479459727  397
1479459727  424
1479459727  451
1479459727  457
1479459727  455
1479459727  486
1479459727  558
1479459727  4565
1479459727  4189
1479459727  3843
1479459727  3354
1479459727  2724
1479459727  2008
1479459727  1272
1479459727  563
1479459727  -96
1479459727  -690
1479459727  -1201
1479459727  -1615
1479459727  -1931
1479459727  -2147
1479459727  -2251
1479459727  -2238
1479459727  -2126
1479459727  -1966
1479459727  -1803
1479459727  -1648
1479459727  -1473
1479459727  -1251
1479459727  -993
1479459727  -757
1479459727  -590
1479459727  -486
1479459727  -394
1479459727  -269
1479459727  -126
1479459727  -19
1479459727  23
1479459727  29
1479459727  50
1479459727  109
1479459727  174
1479459727  207
1479459727  205
1479459727  194
1479459727  192
1479459727  199
1479459727  207
1479459727  213
1479459727  224
1479459727  243
1479459727  266
1479459727  282
1479459727  287
1479459727  282
1479459727  282
1479459727  295
1479459727  309
1479459727  305
1479459727  282
1479459727  273
1479459727  316
1479459727  406
1479459727  497
1479459727  548
1479459727  564
1479459727  587
1479459727  643
1479459727  710
1479459727  747
1479459727  705
1479459727  680
1479459727  671
1479459727  662
1479459727  670
1479459727  686
1479459727  689
1479459727  677
1479459727  692
1479459727  707
1479459727  641
1479459728  634
1479459728  709
1479459728  826
1479459728  889
1479459728  854
1479459728  778
1479459728  751
1479459728  788
1479459728  817
1479459728  774
1479459728  674
1479459728  587
1479459728  570
1479459728  598
1479459728  628
1479459728  656
1479459728  656
1479459728  556
1479459728  524
1479459728  608
1479459728  451
1479459728  420
1479459728  406
1479459728  367
1479459728  295
1479459728  223
1479459728  191
1479459728  204
1479459728  244
1479459728  285
1479459728  316
1479459728  335
1479459728  339
1479459728  332
1479459728  321
1479459728  312
1479459728  307
1479459728  303
1479459728  304
1479459728  310
1479459728  320
1479459728  326
1479459728  333
1479459728  348
1479459728  369
1479459728  384
1479459728  386
1479459728  389
1479459728  406
1479459728  435
1479459728  450
1479459728  454
1479459728  452
1479459728  497
1479459728  574
1479459728  650
1479459728  782
1479459728  708
1479459728  930
1479459728  1169
1479459728  1458
1479459728  1744
1479459728  2018
1479459728  2315
1479459728  2659
1479459728  3029
1479459728  3388
1479459728  3719
1479459728  4033
1479459728  4318
1479459728  4526
1479459728  4605
1479459728  4548
1479459728  4384
1479459728  4132
1479459728  3763
1479459728  3240
1479459728  2578
1479459728  1848
1479459728  1120
1479459728  -213
1479459728  430
1479459728  -796
1479459728  -1292
1479459728  -1682
1479459728  -1972
1479459728  -2165
1479459728  -2252
1479459728  -2222
1479459728  -2095
1479459728  -1929
1479459728  -1769
1479459728  -1620
1479459728  -1441
1479459728  -1209
1479459728  -950
1479459728  -725
1479459728  -571
1479459728  -470
1479459728  -369
1479459728  -239
1479459728  -105
1479459728  -12
1479459728  23
1479459728  34
1479459728  62
1479459728  119
1479459728  175
1479459728  203
1479459728  201
1479459728  191
1479459728  187
1479459728  193
1479459728  202
1479459728  213
1479459728  224
1479459728  235
1479459728  250
1479459728  265
1479459728  274
1479459728  276
1479459728  277
1479459728  286
1479459728  298
1479459728  297
1479459728  281
1479459728  283
1479459728  336
1479459728  432
1479459728  519
1479459728  563
1479459728  577
1479459728  608
1479459728  670
1479459728  733
1479459728  757
1479459728  737
1479459728  704
1479459728  687
1479459728  685
1479459728  677
1479459728  668
1479459728  667
1479459728  674
1479459728  680
1479459728  676
1479459728  670
1479459728  679
1479459728  699
1479459728  706
1479459728  681
1479459728  645
1479459728  655
1479459728  742
1479459728  851
1479459728  896
1479459728  847
1479459728  774
1479459728  759
1479459728  766
1479459728  659
1479459728  825
1479459728  803
1479459728  582
1479459728  570
1479459728  616
1479459728  594
1479459728  654
1479459728  633
1479459728  655
1479459728  605
1479459728  514
1479459728  435
1479459728  405
1479459728  398
1479459728  359
1479459728  277
1479459728  200
1479459728  178
1479459728  210
1479459728  258
1479459728  290
1479459728  309
1479459728  325
1479459728  331
1479459728  312
1479459728  296
1479459728  295
1479459728  301
1479459728  305
1479459728  307
1479459728  313
1479459728  324
1479459728  339
1479459728  356
1479459728  372
1479459728  383
1479459728  387
1479459728  445
1479459728  396
1479459728  418
1479459728  458
1479459728  454
1479459728  466
1479459728  521
1479459728  607
1479459728  681
1479459728  733
1479459728  812
1479459728  978
1479459728  1239
1479459728  1535
1479459728  1814
1479459728  2082
1479459728  2387
1479459728  2745
1479459728  3120
1479459728  3471
1479459728  3791
1479459728  4098
1479459728  4374
1479459728  4560
1479459728  4606
1479459728  4519
1479459728  4336
1479459728  4066
1479459728  3669
1479459728  3115
1479459728  2431
1479459728  1695
1479459728  971
1479459728  290
1479459728  -342
1479459728  -909
1479459728  -1387
1479459728  -1760
1479459728  -2032
1479459728  -2201
1479459728  -2256
1479459728  -2197
1479459728  -2059
1479459728  -1896
1479459728  -1741
1479459728  -1582
1479459728  -1385
1479459728  -1144
1479459728  -896
1479459728  -691
1479459728  -551
1479459728  -447
1479459728  -205
1479459728  -337
1479459728  -79
1479459728  1
1479459728  30
1479459728  41
1479459728  73
1479459728  132
1479459728  208
1479459728  198
1479459728  187
1479459728  183
1479459728  181
1479459728  197
1479459728  213
1479459728  224
1479459728  231
1479459728  245
1479459728  267
1479459728  285
1479459728  288
1479459728  280
1479459728  280
1479459728  295
1479459728  308
1479459728  296
1479459728  -31739
1479459728  274
1479459728  341
1479459728  -17663
1479459728  567
1479459728  608
1479459728  554
1479459728  680
1479459728  741
1479459728  718
1479459728  682
1479459728  671
1479459728  677
1479459728  677
1479459728  662
1479459728  648
1479459728  654
1479459728  674
1479459728  684
1479459728  671
1479459728  657
1479459728  668
1479459728  696
1479459728  700
1479459728  615
1479459728  638
1479459728  743
1479459728  852
1479459728  870
1479459728  660
1479459728  800
1479459728  744
1479459728  735
1479459728  797
1479459728  799
1479459728  718
1479459728  612
1479459728  556
1479459728  559
1479459728  580
1479459728  594
1479459728  613
1479459728  638
1479459728  632
1479459728  566
1479459728  468
1479459728  403
1479459728  389
1479459728  381
1479459728  327
1479459728  236
1479459728  171
1479459728  170
1479459728  216
1479459728  262
1479459728  287
1479459728  302
1479459728  319
1479459728  329
1479459728  321
1479459728  300
1479459728  287
1479459728  291
1479459728  301
1479459728  307
1479459728  308
1479459728  311
1479459728  321
1479459728  336
1479459728  355
1479459728  370
1479459728  377
1479459728  379
1479459728  387
1479459728  408
1479459728  431
1479459728  441
1479459728  443
1479459728  463
1479459728  521
1479459728  601
1479459728  671
1479459728  733
1479459728  831
1479459728  1014
1479459728  1279
1479459728  1573
1479459728  1856
1479459728  2135
1479459728  2450
1479459728  2811
1479459728  3183
1479459728  3530
1479459728  3846
1479459728  4142
1479459728  4399
1479459728  4561
1479459728  4585
1479459728  4475
1479459728  4263
1479459728  3959
1479459728  3529
1479459728  2952
1479459728  2256
1479459728  1514
1479459728  793
1479459728  122
1479459728  -495
1479459728  -1044
1479459728  -190
1479459728  -72
1479459728  -14
1479459728  -2
1479459728  12
1479459728  60
1479459728  178
1479459728  169
1479459728  124
1479459728  168
1479459728  165
1479459728  170
1479459728  181
1479459728  191
1479459728  200
1479459728  211
1479459728  227
1479459728  244
1479459728  258
1479459728  259
1479459728  256
1479459728  260
1479459728  275
1479459728  284
1479459728  272
1479459728  257
1479459728  278
1479459728  355
1479459728  453
1479459728  522
1479459728  550
1479459728  573
1479459728  622
1479459728  690
1479459728  736
1479459728  736
1479459728  709
1479459728  683
1479459728  673
1479459728  671
1479459728  667
1479459728  661
1479459728  660
1479459728  667
1479459728  676
1479459728  677
1479459728  673
1479459728  677
1479459728  710
1479459728  695
1479459728  699
1479459728  660
1479459728  641
1479459728  690
1479459728  798
1479459728  882
1479459728  878
1479459728  773
1479459728  814
1479459728  798
1479459728  708
1479459728  607
1479459728  807
1479459728  557
1479459728  591
1479459728  563
1479459728  616
1479459728  639
1479459728  650
1479459728  624
1479459728  553
1479459728  471
1479459728  420
1479459728  404
1479459728  381
1479459728  321
1479459728  241
1479459728  188
1479459728  188
1479459728  229
1479459728  277
1479459728  311
1479459728  328
1479459728  334
1479459728  332
1479459728  324
1479459728  313
1479459728  305
1479459728  303
1479459728  307
1479459729  313
1479459729  320
1479459729  325
1479459729  334
1479459729  352
1479459729  375
1479459729  391
1479459729  393
1479459729  393
1479459729  408
1479459729  436
1479459729  459
1479459729  461
1479459729  461
1479459729  491
1479459729  559
1479459729  636
1479459729  696
1479459729  761
1479459729  884
1479459729  1097
1479459729  1372
1479459729  1657
1479459729  1932
1479459729  2222
1479459729  2559
1479459729  2932
1479459729  3298
1479459729  3633
1479459729  3946
1479459729  4240
1479459729  4593
1479459729  4480
1479459729  4461
1479459729  4606
1479459729  -1820
1479459729  -1667
1479459729  -1498
1479459729  -1033
1479459729  -614
1479459729  -501
1479459729  -411
1479459729  -294
1479459729  -154
1479459729  17
1479459729  39
1479459729  92
1479459729  204
1479459729  186
1479459729  177
1479459729  185
1479459729  199
1479459729  208
1479459729  215
1479459729  225
1479459729  241
1479459729  257
1479459729  267
1479459729  269
1479459729  269
1479459729  277
1479459729  290
1479459729  290
1479459729  274
1479459729  267
1479459729  304
1479459729  391
1479459729  486
1479459729  543
1479459729  563
1479459729  585
1479459729  641
1479459729  709
1479459729  748
1479459729  736
1479459729  698
1479459729  672
1479459729  670
1479459729  676
1479459729  673
1479459729  663
1479459729  662
1479459729  676
1479459729  690
1479459729  690
1479459729  681
1479459729  682
1479459729  701
1479459729  716
1479459729  698
1479459729  658
1479459729  648
1479459729  713
1479459729  825
1479459729  896
1479459729  875
1479459729  802
1479459729  766
1479459729  797
1479459729  833
1479459729  799
1479459729  701
1479459729  610
1479459729  578
1479459729  593
1479459729  616
1479459729  635
1479459729  658
1479459729  669
1479459729  635
1479459729  552
1479459729  466
1479459729  422
1479459729  413
1479459729  384
1479459729  310
1479459729  226
1479459729  183
1479459729  198
1479459729  242
1479459729  281
1479459729  306
1479459729  320
1479459729  327
1479459729  315
1479459729  307
1479459729  444
1479459729  559
1479459729  637
1479459729  694
1479459729  763
1479459729  907
1479459729  1431
1479459729  1145
1479459729  1710
1479459729  1979
1479459729  2621
1479459729  2275
1479459729  2992
1479459729  3348
1479459729  3677
1479459729  4288
1479459729  4505
1479459729  3995
1479459729  4402
1479459729  4162
1479459729  3801
1479459729  3292
1479459729  2648
1479459729  1930
1479459729  1199
1479459729  495
1479459729  -160
1479459729  -748
1479459729  -1249
1479459729  -1654
1479459729  -1964
1479459729  -2174
1479459729  -2267
1479459729  -2241
1479459729  -2123
1479459729  -1967
1479459729  -1810
1479459729  -1651
1479459729  -1468
1479459729  -1242
1479459729  -991
1479459729  -763
1479459729  -595
1479459729  -484
1479459729  -388
1479459729  -268
1479459729  -134
1479459729  -28
1479459729  16
1479459729  20
1479459729  36
1479459729  4594
1479459729  4551
1479459729  89
1479459729  154
1479459729  190
1479459729  185
1479459729  168
1479459729  162
1479459729  172
1479459729  184
1479459729  192
1479459729  201
1479459729  216
1479459729  237
1479459729  254
1479459729  261
1479459729  259
1479459729  259
1479459729  267
1479459729  277
1479459729  270
1479459729  250
1479459729  247
1479459729  296
1479459729  390
1479459729  480
1479459729  529
1479459729  546
1479459729  576
1479459729  639
1479459729  708
1479459729  740
1479459729  723
1479459729  685
1479459729  662
1479459729  660
1479459729  659
1479459729  664
1479459729  648
1479459729  646
1479459729  657
1479459729  669
1479459729  668
1479459729  661
1479459729  669
1479459729  692
1479459729  703
1479459729  677
1479459729  637
1479459729  642
1479459729  725
1479459729  834
1479459729  833
1479459729  879
1479459729  759
1479459729  741
1479459729  779
1479459729  800
1479459729  747
1479459729  647
1479459729  569
1479459729  548
1479459729  563
1479459729  587
1479459729  613
1479459729  638
1479459729  636
1479459729  584
1479459729  497
1479459729  423
1479459729  393
1479459729  381
1479459729  274
1479459729  204
1479459729  345
1479459729  174
1479459729  236
1479459729  191
1479459729  314
1479459729  282
1479459729  397
1479459729  425
1479459729  448
1479459729  451
1479459729  458
1479459729  577
1479459729  652
1479459729  709
1479459729  790
1479459729  952
1479459729  1206
1479459729  1496
1479459729  1774
1479459729  2046
1479459729  2352
1479459729  2711
1479459729  3429
1479459729  3746
1479459729  4056
1479459729  4341
1479459729  4541
1479459729  4603
1479459729  4531
1479459729  500
1479459729  4358
1479459729  4095
1479459729  3709
1479459729  3169
1479459729  2500
1479459729  1772
1479459729  1045
1479459729  353
1479459729  -292
1479459729  -866
1479459729  -1347
1479459729  -1724
1479459729  -2002
1479459729  -2183
1479459729  -2254
1479459729  -2208
1479459729  -2077
1479459729  -1913
1479459729  -1755
1479459729  -1600
1479459729  -1414
1479459729  -1182
1479459729  -929
1479459729  -565
1479459729  -713
1479459729  -466
1479459729  -236
1479459729  -366
1479459729  -102
1479459729  -13
1479459729  14
1479459729  16
1479459729  43
1479459729  108
1479459729  171
1479459729  195
1479459729  183
1479459729  168
1479459729  171
1479459729  187
1479459729  198
1479459729  210
1479459729  231
1479459729  256
1479459729  271
1479459729  273
1479459729  273
1479459729  283
1479459729  302
1479459729  309
1479459729  294
1479459729  270
1479459729  279
1479459729  340
1479459729  432
1479459729  508
1479459729  546
1479459729  565
1479459729  604
1479459729  667
1479459729  726
1479459729  747
1479459729  726
1479459729  691
1479459729  667
1479459729  669
1479459729  662
1479459729  651
1479459729  648
1479459729  658
1479459729  670
1479459729  669
1479459729  661
1479459729  664
1479459729  679
1479459729  686
1479459729  663
1479459729  634
1479459729  652
1479459729  740
1479459729  842
1479459729  874
1479459729  822
1479459729  756
1479459729  749
1479459729  789
1479459729  797
1479459729  728
1479459729  621
1479459729  552
1479459729  546
1479459729  573
1479459729  598
1479459729  620
1479459729  638
1479459729  631
1479459729  576
1479459729  491
1479459729  397
1479459729  380
1479459729  333
1479459729  423
1479459729  176
1479459729  254
1479459729  207
1479459729  290
1479459729  314
1479459729  327
1479459729  330
1479459729  322
1479459729  296
1479459729  294
1479459729  298
1479459729  317
1479459729  307
1479459729  307
1479459729  327
1479459729  334
1479459729  346
1479459729  366
1479459729  387
1479459729  398
1479459729  398
1479459729  404
1479459729  427
1479459729  454
1479459729  464
1479459729  461
1479459729  477
1479459729  536
1479459729  621
1479459729  692
1479459729  747
1479459729  836
1479459729  1013
1479459729  1275
1479459729  1566
1479459729  2120
1479459729  2435
1479459729  3163
1479459729  3826
1479459729  4411
1479459729  4137
1479459729  4584
1479459729  4615
1479459729  4518
1479459729  4327
1479459729  4047
1479459729  3638
1479459729  3072
1479459729  1642
1479459729  2381
1479459729  917
1479459729  239
1479459729  -384
1479459729  -937
1479459729  -1403
1479459729  -1770
1479459729  -2035
1479459729  -2195
1479459729  -2238
1479459729  -2169
1479459729  -2025
1479459729  -1542
1479459729  -1858
1479459729  -1346
1479459729  -1701
1479459729  -1102
1479459729  -847
1479459729  -641
1479459730  -508
1479459730  -306
1479459730  -168
1479459730  -43
1479459730  24
1479459730  40
1479459730  51
1479459730  95
1479459730  159
1479459730  -415
1479459730  206
1479459730  218
1479459730  211
1479459730  208
1479459730  214
1479459730  224
1479459730  231
1479459730  241
1479459730  253
1479459730  269
1479459730  285
1479459730  297
1479459730  300
1479459730  304
1479459730  316
1479459730  323
1479459730  314
1479459730  301
1479459730  320
1479459730  391
1479459730  486
1479459730  557
1479459730  590
1479459730  612
1479459730  657
1479459730  719
1479459730  764
1479459730  769
1479459730  744
1479459730  715
1479459730  702
1479459730  698
1479459730  696
1479459730  687
1479459730  679
1479459730  680
1479459730  691
1479459730  701
1479459730  699
1479459730  693
1479459730  700
1479459730  717
1479459730  718
1479459730  689
1479459730  661
1479459730  693
1479459730  793
1479459730  890
1479459730  903
1479459730  836
1479459730  777
1479459730  788
1479459730  834
1479459730  830
1479459730  747
1479459730  645
1479459730  592
1479459730  596
1479459730  618
1479459730  636
1479459730  659
1479459730  683
1479459730  671
1479459730  601
1479459730  449
1479459730  440
1479459730  429
1479459730  372
1479459730  281
1479459730  215
1479459730  319
1479459730  292
1479459730  337
1479459730  352
1479459730  354
1479459730  250
1479459730  339
1479459730  321
1479459730  318
1479459730  327
1479459730  336
1479459730  335
1479459730  335
1479459730  342
1479459730  356
1479459730  372
1479459730  386
1479459730  398
1479459730  407
1479459730  414
1479459730  423
1479459730  440
1479459730  457
1479459730  467
1479459730  473
1479459730  499
1479459730  555
1479459730  625
1479459730  687
1479459730  751
1479459730  866
1479459730  1067
1479459730  1337
1479459730  1624
1479459730  1899
1479459730  2183
1479459730  2510
1479459730  2877
1479459730  3244
1479459730  3582
1479459730  3898
1479459730  4200
1479459730  4456
1479459730  4604
1479459730  4608
1479459730  4275
1479459730  3966
1479459730  3518
1479459730  2916
1479459730  2208
1479459730  1470
1479459730  757
1479459730  91
1479459730  -522
1479459730  -1062
1479459730  -1506
1479459730  -1847
1479459730  -2087
1479459730  -2219
1479459730  -2233
1479459730  -2142
1479459730  -1990
1479459730  -1828
1479459730  -1676
1479459730  -1511
1479459730  -1054
1479459730  -626
1479459730  -812
1479459730  -505
1479459730  -411
1479459730  -296
1479459730  -158
1479459730  -37
1479459730  26
1479459730  38
1479459730  49
1479459730  95
1479459730  164
1479459730  210
1479459730  212
1479459730  192
1479459730  181
1479459730  191
1479459730  206
1479459730  213
1479459730  216
1479459730  228
1479459730  252
1479459730  276
1479459730  286
1479459730  282
1479459730  278
1479459730  286
1479459730  299
1479459730  298
1479459730  278
1479459730  383
1479459730  473
1479459730  268
1479459730  302
1479459730  532
1479459730  641
1479459730  703
1479459730  740
1479459730  709
1479459730  681
1479459730  670
1479459730  670
1479459730  670
1479459730  662
1479459730  656
1479459730  661
1479459730  675
1479459730  681
1479459730  672
1479459730  664
1479459730  674
1479459730  692
1479459730  687
1479459730  650
1479459730  628
1479459730  676
1479459730  784
1479459730  867
1479459730  858
1479459730  788
1479459730  746
1479459730  771
1479459730  808
1479459730  783
1479459730  692
1479459730  599
1479459730  559
1479459730  590
1479459730  567
1479459730  612
1479459730  635
1479459730  648
1479459730  619
1479459730  545
1479459730  418
1479459730  463
1479459730  406
1479459730  384
1479459730  323
1479459730  242
1479459730  190
1479459730  195
1479459730  288
1479459730  316
1479459730  325
1479459730  325
1479459730  319
1479459730  298
1479459730  323
1479459730  327
1479459730  315
1479459730  334
1479459730  351
1479459730  375
1479459730  391
1479459730  393
1479459730  391
1479459730  403
1479459730  429
1479459730  451
1479459730  454
1479459730  454
1479459730  487
1479459730  558
1479459730  637
1479459730  697
1479459730  763
1479459730  893
1479459730  1116
1479459730  1398
1479459730  1682
1479459730  1952
1479459730  2242
1479459730  2580
1479459730  2950
1479459730  3309
1479459730  3638
1479459730  3953
1479459730  4252
1479459730  4488
1479459730  4600
1479459730  4572
1479459730  4430
1479459730  4202
1479459730  3866
1479459730  3381
1479459730  2747
1479459730  2026
1479459730  1292
1479459730  590
1479459730  -68
1479459730  -670
1479459730  -1191
1479459730  -1611
1479459730  -1926
1479459730  -2142
1479459730  -2254
1479459730  -2251
1479459730  -2147
1479459730  -1987
1479459730  -1823
1479459730  -1500
1479459730  -1671
1479459730  -1284
1479459730  -1030
1479459730  -792
1479459730  -621
1479459730  -512
1479459730  -419
1479459730  -297
1479459730  -157
1479459730  -45
1479459730  4
1479459730  30
1479459730  84
1479459730  152
1479459730  191
1479459730  189
1479459730  174
1479459730  171
1479459730  184
1479459730  195
1479459730  196
1479459730  198
1479459730  213
1479459730  239
1479459730  262
1479459730  268
1479459730  264
1479459730  267
1479459730  281
1479459730  295
1479459730  265
1479459730  261
1479459730  288
1479459730  304
1479459730  390
1479459730  527
1479459730  476
1479459730  551
1479459730  580
1479459730  636
1479459730  735
1479459730  729
1479459730  699
1479459730  697
1479459730  663
1479459730  670
1479459730  668
1479459730  667
1479459730  653
1479459730  641
1479459730  646
1479459730  662
1479459730  669
1479459730  661
1479459730  656
1479459730  669
1479459730  582
1479459730  601
1479459730  623
1479459730  633
1479459730  596
1479459730  512
1479459730  427
1479459730  384
1479459730  373
1479459730  344
1479459730  273
1479459730  191
1479459730  149
1479459730  162
1479459730  207
1479459730  252
1479459730  281
1479459730  298
1479459730  305
1479459730  302
1479459730  287
1479459730  270
1479459730  262
1479459730  264
1479459730  272
1479459730  279
1479459730  280
1479459730  278
1479459730  285
1479459730  305
1479459730  330
1479459730  341
1479459730  338
1479459730  341
1479459730  366
1479459730  401
1479459730  419
1479459730  414
1479459730  418
1479459730  465
1479459730  545
1479459730  619
1479459730  670
1479459730  736
1479459730  880
1479459730  1119
1479459730  1410
1479459730  1697
1479459730  1974
1479459730  2274
1479459730  2622
1479459730  2995
1479459730  3352
1479459730  3679
1479459730  3990
1479459730  4279
1479459730  4495
1479459730  4523
1479459730  4359
1479459730  4110
1479459730  3750
1479459730  3239
1479459730  2584
1479459730  1853
1479459730  1119
1479459730  426
1479459730  -218
1479459730  -1302
1479459730  -801
1479459730  -1702
1479459730  -2194
1479459730  -1998
1479459730  -2279
1479459730  -2250
1479459730  -2130
1479459730  -1968
1479459730  -1808
1479459730  -1653
1479459730  -1470
1479459730  -1240
1479459730  -984
1479459730  -604
1479459730  -759
1479459730  -504
1479459730  -407
1479459730  -279
1479459730  -143
1479459730  -48
1479459730  -15
1479459730  87
1479459730  150
1479459730  179
1479459730  -7
1479459730  23
1479459730  175
1479459730  164
1479459730  164
1479459730  176
1479459730  187
1479459730  205
1479459730  564
1479459730  579
1479459730  602
1479459730  658
1479459730  791
1479459730  732
1479459730  802
1479459730  794
1479459730  811
1479459730  809
1479459730  845
1479459730  878
1479459730  890
1479459730  888
1479459730  885
1479459730  884
1479459731  860
1479459731  875
1479459731  853
1479459731  860
1479459731  862
1479459731  832
1479459731  791
1479459731  796
1479459731  881
1479459731  992
1479459731  1038
1479459731  989
1479459731  914
1479459731  894
1479459731  930
1479459731  946
1479459731  885
1479459731  779
1479459731  702
1479459731  687
1479459731  705
1479459731  723
1479459731  736
1479459731  752
1479459731  751
1479459731  702
1479459731  614
1479459731  536
1479459731  507
1479459731  503
1479459731  473
1479459731  397
1479459731  315
1479459731  282
1479459731  306
1479459731  353
1479459731  386
1479459731  398
1479459731  403
1479459731  402
1479459731  387
1479459731  371
1479459731  367
1479459731  372
1479459731  380
1479459731  385
1479459731  389
1479459731  395
1479459731  439
1479459731  408
1479459731  424
1479459731  447
1479459731  448
1479459731  452
1479459731  469
1479459731  491
1479459731  501
1479459731  500
1479459731  512
1479459731  562
1479459731  637
1479459731  706
1479459731  763
1479459731  850
1479459731  1018
1479459731  1269
1479459731  1556
1479459731  1834
1479459731  2108
1479459731  2416
1479459731  2771
1479459731  3140
1479459731  3490
1479459731  3814
1479459731  4125
1479459731  4400
1479459731  4588
1479459731  4646
1479459731  4577
1479459731  4407
1479459731  4140
1479459731  3746
1479459731  3204
1479459731  2538
1479459731  1815
1479459731  1095
1479459731  412
1479459731  -219
1479459731  -784
1479459731  -1263
1479459731  -1644
1479459731  -1923
1479459731  -2099
1479459731  -1988
1479459731  -2115
1479459731  -1828
1479459731  -1670
1479459731  -1317
1479459731  -1077
1479459731  -609
1479459731  -821
1479459731  -468
1479459731  -371
1479459731  -134
1479459731  -267
1479459731  -9
1479459731  65
1479459731  84
1479459731  126
1479459731  91
1479459731  186
1479459731  237
1479459731  257
1479459731  252
1479459731  244
1479459731  241
1479459731  243
1479459731  248
1479459731  256
1479459731  267
1479459731  280
1479459731  293
1479459731  304
1479459731  309
1479459731  310
1479459731  315
1479459731  326
1479459731  332
1479459731  319
1479459731  299
1479459731  308
1479459731  467
1479459731  546
1479459731  600
1479459731  583
1479459731  636
1479459731  699
1479459731  747
1479459731  710
1479459731  691
1479459731  692
1479459731  697
1479459731  692
1479459731  683
1479459731  756
1479459731  772
1479459731  684
1479459731  698
1479459731  707
1479459731  701
1479459731  692
1479459731  699
1479459731  720
1479459731  723
1479459731  688
1479459731  652
1479459731  675
1479459731  770
1479459731  867
1479459731  884
1479459731  821
1479459731  757
1479459731  758
1479459731  803
1479459731  809
1479459731  740
1479459731  640
1479459731  576
1479459731  570
1479459731  593
1479459731  617
1479459731  641
1479459731  660
1479459731  647
1479459731  585
1479459731  497
1479459731  433
1479459731  410
1479459731  398
1479459731  354
1479459731  207
1479459731  187
1479459731  218
1479459731  270
1479459731  310
1479459731  276
1479459731  331
1479459731  337
1479459731  335
1479459731  317
1479459731  327
1479459731  308
1479459731  303
1479459731  302
1479459731  312
1479459731  333
1479459731  357
1479459731  381
1479459731  384
1479459731  388
1479459731  416
1479459731  445
1479459731  451
1479459731  443
1479459731  461
1479459731  524
1479459731  604
1479459731  660
1479459731  707
1479459731  806
1479459731  1004
1479459731  1280
1479459731  1832
1479459731  2108
1479459731  1565
1479459731  2435
1479459731  2805
1479459731  3171
1479459731  3503
1479459731  3818
1479459731  4128
1479459731  4396
1479459731  4556
1479459731  4574
1479459731  4470
1479459731  3983
1479459731  4275
1479459731  2967
1479459731  3552
1479459731  2274
1479459731  824
1479459731  1543
1479459731  143
1479459731  -1036
1479459731  -1492
1479459731  -484
1479459731  -1846
1479459731  -2101
1479459731  -2249
1479459731  -2197
1479459731  -2052
1479459731  -1735
1479459731  -1371
1479459731  -887
1479459731  -687
1479459731  -554
1479459731  -457
1479459731  -350
1479459731  -20
1479459731  -6
1479459731  2
1479459731  46
1479459731  119
1479459731  174
1479459731  185
1479459731  169
1479459731  -215
1479459731  -90
1479459731  161
1479459731  170
1479459731  186
1479459731  193
1479459731  197
1479459731  228
1479459731  251
1479459731  264
1479459731  263
1479459731  257
1479459731  260
1479459731  274
1479459731  280
1479459731  266
1479459731  248
1479459731  268
1479459731  342
1479459731  436
1479459731  504
1479459731  532
1479459731  555
1479459731  605
1479459731  673
1479459731  719
1479459731  720
1479459731  691
1479459731  664
1479459731  655
1479459731  654
1479459731  649
1479459731  654
1479459731  658
1479459731  646
1479459731  636
1479459731  646
1479459731  664
1479459731  637
1479459731  619
1479459731  592
1479459731  635
1479459731  743
1479459731  833
1479459731  725
1479459731  768
1479459731  751
1479459731  658
1479459731  557
1479459731  511
1479459731  518
1479459731  539
1479459731  556
1479459731  578
1479459731  597
1479459731  511
1479459731  425
1479459731  580
1479459731  371
1479459731  356
1479459731  277
1479459731  194
1479459731  138
1479459731  337
1479459731  136
1479459731  175
1479459731  221
1479459731  254
1479459731  269
1479459731  272
1479459731  268
1479459731  259
1479459731  249
1479459731  242
1479459731  237
1479459731  237
1479459731  244
1479459731  257
1479459731  268
1479459731  276
1479459731  289
1479459731  311
1479459731  331
1479459731  338
1479459731  338
1479459731  348
1479459731  376
1479459731  400
1479459731  403
1479459731  400
1479459731  429
1479459731  498
1479459731  578
1479459731  637
1479459731  698
1479459731  1028
1479459731  817
1479459731  1302
1479459731  1584
1479459731  1855
1479459731  2142
1479459731  2475
1479459731  2839
1479459731  3200
1479459731  3537
1479459731  3859
1479459731  4161
1479459731  4405
1479459731  4536
1479459731  4533
1479459731  4409
1479459731  4188
1479459731  3862
1479459731  3399
1479459731  2792
1479459731  2083
1479459731  1340
1479459731  622
1479459731  -43
1479459731  -644
1479459731  -1171
1479459731  -1609
1479459731  -1945
1479459731  -2173
1479459731  -2289
1479459731  -2291
1479459731  -2194
1479459731  -2041
1479459731  -1878
1479459731  -1722
1479459731  -1554
1479459731  -1345
1479459731  -1097
1479459731  -856
1479459731  -674
1479459731  -556
1479459731  -461
1479459731  -341
1479459731  -200
1479459731  -82
1479459731  -27
1479459731  -20
1479459731  -9
1479459731  37
1479459731  103
1479459731  146
1479459731  148
1479459731  128
1479459731  117
1479459731  125
1479459731  141
1479459731  150
1479459731  154
1479459731  163
1479459731  184
1479459731  207
1479459731  219
1479459731  215
1479459731  211
1479459731  219
1479459731  235
1479459731  238
1479459731  218
1479459731  234
1479459731  203
1479459731  319
1479459731  419
1479459731  510
1479459731  697
1479459731  692
1479459731  651
1479459731  654
1479459731  623
1479459731  618
1479459731  624
1479459731  608
1479459731  599
1479459731  626
1479459731  610
1479459731  632
1479459731  638
1479459731  625
1479459731  618
1479459731  633
1479459731  650
1479459731  635
1479459731  593
1479459731  579
1479459731  642
1479459731  755
1479459731  825
1479459731  800
1479459731  726
1479459731  692
1479459731  724
1479459731  758
1479459731  536
1479459731  499
1479459731  628
1479459731  724
1479459731  508
1479459731  532
1479459731  557
1479459731  585
1479459731  557
1479459731  474
1479459731  594
1479459731  390
1479459731  338
1479459731  348
1479459731  311
1479459731  241
1479459731  157
1479459731  111
1479459731  124
1479459731  170
1479459731  213
1479459731  237
1479459731  249
1479459731  257
1479459731  256
1479459731  242
1479459731  225
1479459731  219
1479459731  226
1479459732  630
1479459732  708
1479459732  846
1479459732  568
1479459732  1068
1479459732  1344
1479459732  1908
1479459732  2203
1479459732  2539
1479459732  2903
1479459732  3262
1479459732  3596
1479459732  3914
1479459732  4207
1479459732  4432
1479459732  4535
1479459732  4501
1479459732  4353
1479459732  4114
1479459732  3764
1479459732  3267
1479459732  2626
1479459732  1164
1479459732  1902
1479459732  458
1479459732  -196
1479459732  -786
1479459732  -1294
1479459732  -1704
1479459732  -2014
1479459732  -2321
1479459732  -2224
1479459732  -2299
1479459732  -2181
1479459732  -2022
1479459732  -1863
1479459732  -1709
1479459732  -1530
1479459732  -1309
1479459732  -1060
1479459732  -834
1479459732  -664
1479459732  -547
1479459732  -444
1479459732  -321
1479459732  -190
1479459732  -87
1479459732  -42
1479459732  -32
1479459732  -14
1479459732  144
1479459732  105
1479459732  143
1479459732  125
1479459732  126
1479459732  142
1479459732  154
1479459732  162
1479459732  175
1479459732  195
1479459732  218
1479459732  215
1479459732  217
1479459732  231
1479459732  234
1479459732  243
1479459732  255
1479459732  351
1479459732  442
1479459732  490
1479459732  508
1479459732  535
1479459732  210
1479459732  205
1479459732  593
1479459732  657
1479459732  687
1479459732  674
1479459732  615
1479459732  639
1479459732  613
1479459732  620
1479459732  617
1479459732  605
1479459732  599
1479459732  609
1479459732  623
1479459732  624
1479459732  613
1479459732  613
1479459732  633
1479459732  647
1479459732  562
1479459732  590
1479459732  596
1479459732  548
1479459732  460
1479459732  383
1479459732  353
1479459732  344
1479459732  307
1479459732  232
1479459732  157
1479459732  127
1479459732  148
1479459732  192
1479459732  230
1479459732  255
1479459732  268
1479459732  265
1479459732  253
1479459732  242
1479459732  236
1479459732  241
1479459732  251
1479459732  236
1479459732  266
1479459732  262
1479459732  271
1479459732  287
1479459732  310
1479459732  326
1479459732  328
1479459732  330
1479459732  349
1479459732  379
1479459732  394
1479459732  396
1479459732  400
1479459732  448
1479459732  528
1479459732  604
1479459732  661
1479459732  741
1479459732  897
1479459732  1142
1479459732  1429
1479459732  1714
1479459732  1992
1479459732  2296
1479459732  2642
1479459732  3008
1479459732  3361
1479459732  3691
1479459732  4006
1479459732  4286
1479459732  4484
1479459732  4555
1479459732  4494
1479459732  4326
1479459732  4064
1479459732  3682
1479459732  3152
1479459732  2491
1479459732  1761
1479459732  1026
1479459732  328
1479459732  -316
1479459732  -890
1479459732  -1378
1479459732  -1766
1479459732  -2053
1479459732  -2235
1479459732  -2305
1479459732  -2134
1479459732  -1969
1479459732  -1806
1479459732  -1462
1479459732  -1235
1479459732  -984
1479459732  -762
1479459732  -606
1479459732  -503
1479459732  -405
1479459732  -276
1479459732  -141
1479459732  -49
1479459732  -23
1479459732  -23
1479459732  3
1479459732  69
1479459732  135
1479459732  161
1479459732  149
1479459732  132
1479459732  133
1479459732  150
1479459732  165
1479459732  174
1479459732  180
1479459732  193
1479459732  214
1479459732  233
1479459732  239
1479459732  234
1479459732  243
1479459732  232
1479459732  257
1479459732  250
1479459732  226
1479459732  226
1479459732  284
1479459732  383
1479459732  469
1479459732  508
1479459732  523
1479459732  559
1479459732  627
1479459732  689
1479459732  707
1479459732  684
1479459732  649
1479459732  632
1479459732  631
1479459732  634
1479459732  630
1479459732  624
1479459732  626
1479459732  644
1479459732  643
1479459732  636
1479459732  639
1479459732  653
1479459732  635
1479459732  656
1479459732  629
1479459732  593
1479459732  606
1479459732  693
1479459732  801
1479459732  840
1479459732  789
1479459732  712
1479459732  770
1479459732  706
1479459732  601
1479459732  755
1479459732  530
1479459732  536
1479459732  557
1479459732  518
1479459732  581
1479459732  606
1479459732  600
1479459732  540
1479459732  451
1479459732  365
1479459732  219
1479459732  152
1479459732  301
1479459732  138
1479459732  167
1479459732  209
1479459732  283
1479459732  254
1479459732  281
1479459732  250
1479459732  249
1479459732  244
1479459732  241
1479459732  246
1479459732  258
1479459732  267
1479459732  275
1479459732  312
1479459732  328
1479459732  333
1479459732  361
1479459732  387
1479459732  340
1479459732  397
1479459732  405
1479459732  459
1479459732  392
1479459732  540
1479459732  609
1479459732  758
1479459732  936
1479459732  1195
1479459732  1481
1479459732  1755
1479459732  2029
1479459732  2695
1479459732  3411
1479459732  3063
1479459732  3735
1479459732  4489
1479459732  4312
1479459732  4531
1479459732  4443
1479459732  4251
1479459732  3966
1479459732  3556
1479459732  2996
1479459732  2314
1479459732  1578
1479459732  169
1479459732  852
1479459732  -459
1479459732  -1018
1479459732  -1486
1479459732  -1847
1479459732  -2268
1479459732  -2108
1479459732  -2317
1479459732  -2254
1479459732  -2112
1479459732  -1947
1479459732  -1795
1479459732  -1641
1479459732  -1448
1479459732  -1205
1479459732  -951
1479459732  -746
1479459732  -610
1479459732  -511
1479459732  -398
1479459732  -257
1479459732  -128
1479459732  -53
1479459732  -34
1479459732  -28
1479459732  8
1479459732  74
1479459732  130
1479459732  149
1479459732  136
1479459732  122
1479459732  125
1479459732  141
1479459732  154
1479459732  160
1479459732  165
1479459732  182
1479459732  207
1479459732  225
1479459732  225
1479459732  218
1479459732  220
1479459732  235
1479459732  244
1479459732  231
1479459732  211
1479459732  226
1479459732  296
1479459732  468
1479459732  393
1479459732  503
1479459732  525
1479459732  570
1479459732  636
1479459732  690
1479459732  701
1479459732  675
1479459732  642
1479459732  627
1479459732  629
1479459732  632
1479459732  623
1479459732  613
1479459732  613
1479459732  626
1479459732  634
1479459732  628
1479459732  620
1479459732  631
1479459732  652
1479459732  650
1479459732  611
1479459732  614
1479459732  819
1479459732  829
1479459732  578
1479459732  721
1479459732  762
1479459732  708
1479459732  723
1479459732  768
1479459732  760
1479459732  677
1479459732  578
1479459732  526
1479459732  526
1479459732  543
1479459732  563
1479459732  591
1479459732  614
1479459732  597
1479459732  526
1479459732  436
1479459732  379
1479459732  362
1479459732  341
1479459732  283
1479459732  143
1479459732  136
1479459732  166
1479459732  207
1479459732  240
1479459732  262
1479459732  273
1479459732  201
1479459732  272
1479459732  263
1479459732  252
1479459732  244
1479459732  245
1479459732  246
1479459732  251
1479459732  258
1479459732  264
1479459732  270
1479459732  283
1479459732  305
1479459732  334
1479459732  334
1479459732  325
1479459732  341
1479459732  364
1479459732  386
1479459732  393
1479459732  393
1479459732  417
1479459732  480
1479459732  558
1479459732  620
1479459732  681
1479459732  790
1479459732  988
1479459732  1255
1479459732  1539
1479459732  1813
1479459732  2097
1479459732  2423
1479459732  2788
1479459732  3153
1479459732  3492
1479459732  3810
1479459732  4114
1479459732  4371
1479459732  4522
1479459732  4533
1479459732  4418
1479459732  4209
1479459732  3904
1479459732  3464
1479459732  2873
1479459732  2169
1479459732  1429
1479459732  712
1479459732  44
1479459732  -569
1479459732  -1110
1479459732  -1558
1479459732  -1901
1479459732  -2139
1479459732  -2274
1479459732  -2301
1479459732  -2222
1479459732  -2073
1479459732  -1903
1479459732  -1742
1479459732  -1578
1479459732  -1379
1479459732  -1138
1479459732  -892
1479459732  -696
1479459732  -570
1479459732  -477
1479459732  -365
1479459732  -228
1479459733  -105
1479459733  -40
1479459733  -27
1479459733  -15
1479459733  32
1479459733  102
1479459733  150
1479459733  154
1479459733  137
1479459733  129
1479459733  139
1479459733  153
1479459733  157
1479459733  158
1479459733  169
1479459733  194
1479459733  220
1479459733  230
1479459733  224
1479459733  217
1479459733  226
1479459733  246
1479459733  252
1479459733  233
1479459733  215
1479459733  242
1479459733  324
1479459733  421
1479459733  485
1479459733  508
1479459733  530
1479459733  582
1479459733  651
1479459733  697
1479459733  696
1479459733  666
1479459733  638
1479459733  630
1479459733  634
1479459733  635
1479459733  628
1479459733  621
1479459733  624
1479459733  638
1479459733  646
1479459733  642
1479459733  639
1479459733  651
1479459733  667
1479459733  660
1479459733  623
1479459733  600
1479459733  646
1479459733  750
1479459733  830
1479459733  821
1479459733  750
1479459733  703
1479459733  724
1479459733  762
1479459733  740
1479459733  651
1479459733  555
1479459733  542
1479459733  511
1479459733  568
1479459733  610
1479459733  596
1479459733  579
1479459733  517
1479459733  500
1479459733  367
1479459733  415
1479459733  354
1479459733  330
1479459733  267
1479459733  187
1479459733  139
1479459733  145
1479459733  185
1479459733  228
1479459733  258
1479459733  274
1479459733  279
1479459733  274
1479459733  260
1479459733  246
1479459733  239
1479459733  238
1479459733  242
1479459733  249
1479459733  257
1479459733  261
1479459733  263
1479459733  275
1479459733  1580
1479459733  1853
1479459733  2136
1479459733  2465
1479459733  2832
1479459733  3200
1479459733  3541
1479459733  3861
1479459733  4159
1479459733  4400
1479459733  4529
1479459733  4522
1479459733  4394
1479459733  4171
1479459733  3841
1479459733  3371
1479459733  2756
1479459733  2043
1479459733  1303
1479459733  590
1479459733  -74
1479459733  -677
1479459733  -1203
1479459733  -1632
1479459733  -1956
1479459733  -2178
1479459733  -2294
1479459733  -2300
1479459733  -2207
1479459733  -2056
1479459733  -1893
1479459733  -1738
1479459733  -1573
1479459733  -1367
1479459733  -1120
1479459733  -879
1479459733  -694
1479459733  -574
1479459733  -480
1479459733  -109
1479459733  -56
1479459733  -363
1479459733  -224
1479459733  -48
1479459733  -33
1479459733  20
1479459733  92
1479459733  137
1479459733  108
1479459733  119
1479459733  136
1479459733  145
1479459733  148
1479459733  155
1479459733  173
1479459733  195
1479459733  137
1479459733  118
1479459733  208
1479459733  209
1479459733  203
1479459733  206
1479459733  217
1479459733  217
1479459733  200
1479459733  190
1479459733  225
1479459733  308
1479459733  400
1479459733  458
1479459733  481
1479459733  507
1479459733  560
1479459733  625
1479459733  663
1479459733  658
1479459733  629
1479459733  604
1479459733  594
1479459733  587
1479459733  592
1479459733  576
1479459733  579
1479459733  588
1479459733  581
1479459733  590
1479459733  592
1479459733  620
1479459733  605
1479459733  571
1479459733  628
1479459733  566
1479459733  735
1479459733  788
1479459733  720
1479459733  681
1479459733  704
1479459733  736
1479459733  707
1479459733  615
1479459733  522
1479459733  482
1479459733  493
1479459733  521
1479459733  549
1479459733  574
1479459733  583
1479459733  550
1479459733  474
1479459733  352
1479459733  340
1479459733  315
1479459733  252
1479459733  175
1479459733  395
1479459733  130
1479459733  137
1479459733  177
1479459733  221
1479459733  252
1479459733  266
1479459733  268
1479459733  261
1479459733  249
1479459733  242
1479459733  239
1479459733  240
1479459733  241
1479459733  247
1479459733  257
1479459733  265
1479459733  272
1479459733  285
1479459733  306
1479459733  325
1479459733  332
1479459733  333
1479459733  345
1479459733  371
1479459733  393
1479459733  395
1479459733  396
1479459733  430
1479459733  504
1479459733  585
1479459733  646
1479459733  714
1479459733  847
1479459733  1076
1479459733  1363
1479459733  1651
1479459733  1922
1479459733  2209
1479459733  2548
1479459733  2920
1479459733  3282
1479459733  3612
1479459733  3922
1479459733  4440
1479459733  4212
1479459733  4546
1479459733  4509
1479459733  4356
1479459733  4114
1479459733  3766
1479459733  3273
1479459733  2634
1479459733  1908
1479459733  1171
1479459733  471
1479459733  -178
1479459733  -769
1479459733  -1280
1479459733  -1690
1479459733  -1995
1479459733  -2199
1479459733  -2297
1479459733  -2282
1479459733  -2168
1479459733  -2003
1479459733  -1837
1479459733  -1684
1479459733  -1512
1479459733  -1292
1479459733  -1036
1479459733  -800
1479459733  -633
1479459733  -529
1479459733  -436
1479459733  -312
1479459733  -174
1479459733  -71
1479459733  -31
1479459733  -26
1479459733  -3
1479459733  59
1479459733  127
1479459733  163
1479459733  159
1479459733  140
1479459733  132
1479459733  139
1479459733  151
1479459733  161
1479459733  169
1479459733  183
1479459733  201
1479459733  219
1479459733  230
1479459733  232
1479459733  235
1479459733  244
1479459733  249
1479459733  253
1479459733  231
1479459733  280
1479459733  371
1479459733  459
1479459733  511
1479459733  534
1479459733  567
1479459733  627
1479459733  689
1479459733  715
1479459733  663
1479459733  641
1479459733  698
1479459733  638
1479459733  641
1479459733  631
1479459733  625
1479459733  632
1479459733  642
1479459733  644
1479459733  644
1479459733  637
1479459733  640
1479459733  656
1479459733  667
1479459733  646
1479459733  608
1479459733  607
1479459733  684
1479459733  796
1479459733  855
1479459733  818
1479459733  741
1479459733  712
1479459733  747
1479459733  728
1479459733  626
1479459733  541
1479459733  518
1479459733  775
1479459733  588
1479459733  563
1479459733  612
1479459733  617
1479459733  574
1479459733  537
1479459733  378
1479459733  334
1479459733  260
1479459733  183
1479459733  149
1479459733  168
1479459733  212
1479459733  252
1479459733  276
1479459733  288
1479459733  290
1479459733  283
1479459733  272
1479459733  263
1479459733  266
1479459733  272
1479459733  280
1479459733  288
1479459733  295
1479459733  304
1479459733  321
1479459733  343
1479459733  358
1479459733  360
1479459733  361
1479459733  376
1479459733  404
1479459733  422
1479459733  419
1479459733  423
1479459733  467
1479459733  546
1479459733  623
1479459733  680
1479459733  753
1479459733  905
1479459733  1150
1479459733  1440
1479459733  1721
1479459733  1989
1479459733  2284
1479459733  2633
1479459733  3008
1479459733  3364
1479459733  3688
1479459733  3998
1479459733  4284
1479459733  4493
1479459733  4570
1479459733  4508
1479459733  4338
1479459733  4081
1479459733  3708
1479459733  3184
1479459733  2521
1479459733  1789
1479459733  1057
1479459733  366
1479459733  -275
1479459733  -853
1479459733  -1347
1479459733  -1735
1479459733  -2020
1479459733  -2205
1479459733  -2123
1479459733  -2250
1479459733  -1955
1479459733  -1794
1479459733  -1466
1479459733  -1236
1479459733  -750
1479459733  -976
1479459733  -599
1479459733  -507
1479459733  -281
1479459733  -140
1479459733  -47
1479459733  -22
1479459733  -22
1479459733  6
1479459733  74
1479459733  139
1479459733  166
1479459733  156
1479459733  141
1479459733  140
1479459733  151
1479459733  165
1479459733  159
1479459733  175
1479459733  195
1479459733  214
1479459733  225
1479459733  223
1479459733  218
1479459733  223
1479459733  237
1479459733  247
1479459733  237
1479459733  217
1479459733  225
1479459733  284
1479459733  378
1479459733  459
1479459733  498
1479459733  517
1479459733  553
1479459733  616
1479459733  675
1479459733  697
1479459733  677
1479459733  643
1479459733  623
1479459733  621
1479459733  626
1479459733  622
1479459733  612
1479459733  608
1479459733  616
1479459733  626
1479459733  625
1479459733  618
1479459733  621
1479459733  636
1479459734  640
1479459734  613
1479459734  592
1479459734  578
1479459734  679
1479459734  783
1479459734  819
1479459734  767
1479459734  699
1479459734  690
1479459734  732
1479459734  746
1479459734  682
1479459734  577
1479459734  503
1479459734  489
1479459734  510
1479459734  535
1479459734  556
1479459734  575
1479459734  568
1479459734  514
1479459734  429
1479459734  360
1479459734  333
1479459734  320
1479459734  280
1479459734  204
1479459734  132
1479459734  107
1479459734  133
1479459734  181
1479459734  222
1479459734  243
1479459734  250
1479459734  250
1479459734  246
1479459734  240
1479459734  236
1479459734  235
1479459734  235
1479459734  239
1479459734  246
1479459734  252
1479459734  257
1479459734  266
1479459734  284
1479459734  305
1479459734  315
1479459734  313
1479459734  317
1479459734  341
1479459734  372
1479459734  387
1479459734  383
1479459734  394
1479459734  448
1479459734  531
1479459734  604
1479459734  660
1479459734  747
1479459734  918
1479459734  1466
1479459734  1744
1479459734  2018
1479459734  2327
1479459734  2684
1479459734  3054
1479459734  3402
1479459734  3724
1479459734  4033
1479459734  4310
1479459734  4496
1479459734  4543
1479459734  4456
1479459734  4266
1479459734  3988
1479459734  3586
1479459734  3033
1479459734  2352
1479459734  1615
1479459734  888
1479459734  205
1479459734  -425
1479459734  -988
1479459734  -1459
1479459734  -1825
1479459734  -2090
1479459734  -2257
1479459734  -2314
1479459734  -2259
1479459734  -2119
1479459734  -1949
1479459734  -1790
1479459734  -1636
1479459734  -1450
1479459734  -1212
1479459734  -954
1479459734  -739
1479459734  -600
1479459734  -506
1479459734  -401
1479459734  -262
1479459734  -127
1479459734  -48
1479459734  -31
1479459734  -27
1479459734  9
1479459734  77
1479459734  132
1479459734  147
1479459734  133
1479459734  121
1479459734  124
1479459734  137
1479459734  147
1479459734  156
1479459734  167
1479459734  185
1479459734  204
1479459734  217
1479459734  222
1479459734  224
1479459734  229
1479459734  241
1479459734  247
1479459734  235
1479459734  217
1479459734  228
1479459734  292
1479459734  387
1479459734  465
1479459734  499
1479459734  515
1479459734  552
1479459734  618
1479459734  677
1479459734  694
1479459734  669
1479459734  632
1479459734  615
1479459734  626
1479459734  620
1479459734  621
1479459734  610
1479459734  619
1479459734  628
1479459734  623
1479459734  609
1479459734  615
1479459734  622
1479459734  640
1479459734  641
1479459734  609
1479459734  579
1479459734  607
1479459734  706
1479459734  805
1479459734  825
1479459734  765
1479459734  706
1479459734  713
1479459734  759
1479459734  763
1479459734  589
1479459734  527
1479459734  523
1479459734  545
1479459734  568
1479459734  590
1479459734  608
1479459734  595
1479459734  533
1479459734  445
1479459734  381
1479459734  360
1479459734  347
1479459734  302
1479459734  224
1479459734  157
1479459734  140
1479459734  169
1479459734  217
1479459734  256
1479459734  278
1479459734  286
1479459734  284
1479459734  276
1479459734  266
1479459734  258
1479459734  256
1479459734  259
1479459734  266
1479459734  274
1479459734  277
1479459734  279
1479459734  293
1479459734  320
1479459734  348
1479459734  357
1479459734  351
1479459734  353
1479459734  378
1479459734  409
1479459734  419
1479459734  411
1479459734  425
1479459734  486
1479459734  639
1479459734  695
1479459734  571
1479459734  796
1479459734  990
1479459734  1262
1479459734  1549
1479459734  1818
1479459734  2093
1479459734  2417
1479459734  2786
1479459734  3157
1479459734  3495
1479459734  3811
1479459734  4119
1479459734  4384
1479459734  4541
1479459734  4553
1479459734  4440
1479459734  4237
1479459734  3942
1479459734  3509
1479459734  2921
1479459734  1483
1479459734  769
1479459734  100
1479459734  -518
1479459734  -1064
1479459734  -1517
1479459734  -1866
1479459734  -2117
1479459734  -2264
1479459734  -2297
1479459734  -2219
1479459734  -2071
1479459734  -1907
1479459734  -1753
1479459734  -1592
1479459734  -1392
1479459734  -1147
1479459734  -898
1479459734  -700
1479459734  -571
1479459734  -476
1479459734  -366
1479459734  -231
1479459734  -110
1479459734  -45
1479459734  -29
1479459734  -15
1479459734  32
1479459734  99
1479459734  145
1479459734  154
1479459734  143
1479459734  161
1479459734  140
1479459734  149
1479459734  167
1479459734  174
1479459734  187
1479459734  208
1479459734  228
1479459734  240
1479459734  241
1479459734  240
1479459734  246
1479459734  258
1479459734  264
1479459734  251
1479459734  238
1479459734  260
1479459734  333
1479459734  428
1479459734  498
1479459734  529
1479459734  550
1479459734  660
1479459734  595
1479459734  709
1479459734  715
1479459734  689
1479459734  660
1479459734  650
1479459734  652
1479459734  649
1479459734  636
1479459734  625
1479459734  630
1479459734  646
1479459734  656
1479459734  649
1479459734  642
1479459734  652
1479459734  671
1479459734  666
1479459734  629
1479459734  600
1479459734  638
1479459734  741
1479459734  830
1479459734  829
1479459734  761
1479459734  708
1479459734  723
1479459734  766
1479459734  755
1479459734  669
1479459734  569
1479459734  519
1479459734  524
1479459734  551
1479459734  577
1479459734  602
1479459734  617
1479459734  592
1479459734  518
1479459734  431
1479459734  379
1479459734  368
1479459734  351
1479459734  291
1479459734  203
1479459734  142
1479459734  140
1479459734  182
1479459734  229
1479459734  258
1479459734  270
1479459734  275
1479459734  277
1479459734  273
1479459734  264
1479459734  256
1479459734  255
1479459734  259
1479459734  266
1479459734  277
1479459734  283
1479459734  299
1479459734  323
1479459734  342
1479459734  346
1479459734  343
1479459734  354
1479459734  383
1479459734  410
1479459734  415
1479459734  413
1479459734  440
1479459734  510
1479459734  593
1479459734  658
1479459734  721
1479459734  838
1479459734  1048
1479459734  1323
1479459734  1608
1479459734  1879
1479459734  2163
1479459734  2494
1479459734  2862
1479459734  3225
1479459734  3561
1479459734  4560
1479459734  4184
1479459734  4191
1479459734  4545
1479459734  4412
1479459734  3868
1479459734  3402
1479459734  2783
1479459734  2065
1479459734  1326
1479459734  -43
1479459734  -647
1479459734  -1177
1479459734  -1609
1479459734  -1935
1479459734  -2162
1479459734  -2286
1479459734  -2296
1479459734  -2199
1479459734  -2041
1479459734  -1874
1479459734  -1557
1479459734  -1721
1479459734  -1349
1479459734  -1096
1479459734  -853
1479459734  -673
1479459734  -561
1479459734  -470
1479459734  -352
1479459734  -210
1479459734  -45
1479459734  -36
1479459734  -96
1479459734  -18
1479459734  39
1479459734  108
1479459734  148
1479459734  149
1479459734  135
1479459734  129
1479459734  136
1479459734  144
1479459734  150
1479459734  173
1479459734  158
1479459734  194
1479459734  212
1479459734  225
1479459734  222
1479459734  227
1479459734  246
1479459734  235
1479459734  232
1479459734  227
1479459734  246
1479459734  261
1479459734  430
1479459734  340
1479459734  490
1479459734  516
1479459734  542
1479459734  593
1479459734  657
1479459734  697
1479459734  693
1479459734  661
1479459734  635
1479459734  630
1479459734  635
1479459734  634
1479459734  621
1479459734  612
1479459734  619
1479459734  634
1479459734  639
1479459734  629
1479459734  624
1479459734  660
1479459734  648
1479459734  589
1479459734  650
1479459734  606
1479459734  766
1479459734  843
1479459734  700
1479459734  771
1479459734  742
1479459734  730
1479459734  743
1479459734  644
1479459734  545
1479459734  506
1479459734  520
1479459734  548
1479459734  570
1479459734  589
1479459734  595
1479459734  560
1479459734  481
1479459734  399
1479459734  356
1479459734  346
1479459734  268
1479459734  276
1479459734  281
1479459734  284
1479459734  290
1479459734  305
1479459734  328
1479459734  344
1479459735  346
1479459735  345
1479459735  358
1479459735  385
1479459735  406
1479459735  409
1479459735  414
1479459735  453
1479459735  528
1479459735  603
1479459735  659
1479459735  726
1479459735  863
1479459735  1092
1479459735  1374
1479459735  1655
1479459735  1928
1479459735  2225
1479459735  2569
1479459735  2940
1479459735  3300
1479459735  3634
1479459735  3953
1479459735  4247
1479459735  4470
1479459735  4567
1479459735  4529
1479459735  4379
1479459735  4139
1479459735  3283
1479459735  2639
1479459735  1915
1479459735  1180
1479459735  479
1479459735  -172
1479459735  -762
1479459735  -1271
1479459735  -1681
1479459735  -1990
1479459735  -2198
1479459735  -2299
1479459735  -2284
1479459735  -2171
1479459735  -1845
1479459735  -1692
1479459735  -1519
1479459735  -1298
1479459735  -1041
1479459735  -805
1479459735  -637
1479459735  -532
1479459735  -438
1479459735  -314
1479459735  -176
1479459735  -74
1479459735  -35
1479459735  -31
1479459735  -8
1479459735  120
1479459735  153
1479459735  53
1479459735  127
1479459735  146
1479459735  139
1479459735  130
1479459735  152
1479459735  159
1479459735  179
1479459735  198
1479459735  215
1479459735  221
1479459735  217
1479459735  217
1479459735  229
1479459735  245
1479459735  245
1479459735  226
1479459735  220
1479459735  264
1479459735  452
1479459735  357
1479459735  504
1479459735  539
1479459735  518
1479459735  650
1479459735  589
1479459735  587
1479459735  664
1479459735  779
1479459735  836
1479459735  797
1479459735  724
1479459735  702
1479459735  767
1479459735  742
1479459735  716
1479459735  610
1479459735  510
1479459735  527
1479459735  533
1479459735  559
1479459735  577
1479459735  595
1479459735  595
1479459735  549
1479459735  463
1479459735  384
1479459735  349
1479459735  340
1479459735  306
1479459735  231
1479459735  152
1479459735  121
1479459735  147
1479459735  199
1479459735  241
1479459735  263
1479459735  273
1479459735  280
1479459735  279
1479459735  271
1479459735  262
1479459735  258
1479459735  260
1479459735  265
1479459735  269
1479459735  273
1479459735  277
1479459735  287
1479459735  307
1479459735  331
1479459735  345
1479459735  346
1479459735  350
1479459735  373
1479459735  405
1479459735  422
1479459735  418
1479459735  423
1479459735  471
1479459735  550
1479459735  621
1479459735  672
1479459735  747
1479459735  905
1479459735  1154
1479459735  1442
1479459735  1720
1479459735  1994
1479459735  2299
1479459735  2655
1479459735  3029
1479459735  3384
1479459735  3713
1479459735  4028
1479459735  4310
1479459735  4508
1479459735  4573
1479459735  4508
1479459735  4339
1479459735  4078
1479459735  3690
1479459735  3152
1479459735  2484
1479459735  1757
1479459735  1031
1479459735  341
1479459735  -303
1479459735  -880
1479459735  -1368
1479459735  -1753
1479459735  -2037
1479459735  -2223
1479459735  -2299
1479459735  -2261
1479459735  -2135
1479459735  -1971
1479459735  -1811
1479459735  -1654
1479459735  -1469
1479459735  -1236
1479459735  -978
1479459735  -756
1479459735  -607
1479459735  -511
1479459735  -415
1479459735  -285
1479459735  -149
1479459735  -56
1479459735  -26
1479459735  -21
1479459735  9
1479459735  74
1479459735  137
1479459735  165
1479459735  158
1479459735  146
1479459735  157
1479459735  146
1479459735  167
1479459735  174
1479459735  181
1479459735  192
1479459735  208
1479459735  223
1479459735  231
1479459735  233
1479459735  237
1479459735  249
1479459735  261
1479459735  258
1479459735  242
1479459735  248
1479459735  304
1479459735  396
1479459735  477
1479459735  515
1479459735  528
1479459735  558
1479459735  617
1479459735  677
1479459735  697
1479459735  641
1479459735  624
1479459735  627
1479459735  632
1479459735  624
1479459735  612
1479459735  676
1479459735  613
1479459735  629
1479459735  641
1479459735  635
1479459735  620
1479459735  623
1479459735  643
1479459735  652
1479459735  624
1479459735  585
1479459735  599
1479459735  690
1479459735  797
1479459735  832
1479459735  780
1479459735  715
1479459735  713
1479459735  757
1479459735  766
1479459735  695
1479459735  589
1479459735  522
1479459735  518
1479459735  540
1479459735  559
1479459735  575
1479459735  595
1479459735  591
1479459735  536
1479459735  447
1479459735  376
1479459735  351
1479459735  340
1479459735  297
1479459735  214
1479459735  140
1479459735  120
1479459735  152
1479459735  200
1479459735  234
1479459735  251
1479459735  261
1479459735  266
1479459735  261
1479459735  248
1479459735  236
1479459735  236
1479459735  241
1479459735  245
1479459735  248
1479459735  255
1479459735  269
1479459735  291
1479459735  312
1479459735  319
1479459735  318
1479459735  323
1479459735  345
1479459735  371
1479459735  381
1479459735  398
1479459735  380
1479459735  536
1479459735  598
1479459735  649
1479459735  740
1479459735  1185
1479459735  1473
1479459735  1747
1479459735  2022
1479459735  2340
1479459735  2705
1479459735  3080
1479459735  3429
1479459735  3750
1479459735  4057
1479459735  4326
1479459735  4500
1479459735  4538
1479459735  4256
1479459735  4447
1479459735  3971
1479459735  3555
1479459735  2989
1479459735  2302
1479459735  1566
1479459735  843
1479459735  163
1479459735  -462
1479459735  -1015
1479459735  -1480
1479459735  -1844
1479459735  -2110
1479459735  -2273
1479459735  -2319
1479459735  -2254
1479459735  -2113
1479459735  -1949
1479459735  -1794
1479459735  -1633
1479459735  -1436
1479459735  -1193
1479459735  -943
1479459735  -740
1479459735  -604
1479459735  -505
1479459735  -396
1479459735  -261
1479459735  -137
1479459735  -64
1479459735  -44
1479459735  -33
1479459735  10
1479459735  79
1479459735  134
1479459735  148
1479459735  215
1479459735  282
1479459735  381
1479459735  458
1479459735  488
1479459735  499
1479459735  535
1479459735  602
1479459735  659
1479459735  672
1479459735  644
1479459735  611
1479459735  600
1479459735  606
1479459735  609
1479459735  596
1479459735  584
1479459735  588
1479459735  607
1479459735  596
1479459735  596
1479459735  603
1479459735  619
1479459735  624
1479459735  626
1479459735  590
1479459735  557
1479459735  588
1479459735  799
1479459735  731
1479459735  672
1479459735  683
1479459735  730
1479459735  725
1479459735  642
1479459735  537
1479459735  481
1479459735  485
1479459735  512
1479459735  534
1479459735  556
1479459735  576
1479459735  563
1479459735  495
1479459735  402
1479459735  340
1479459735  327
1479459735  317
1479459735  266
1479459735  178
1479459735  109
1479459735  101
1479459735  143
1479459735  194
1479459735  227
1479459735  241
1479459735  247
1479459735  248
1479459735  241
1479459735  227
1479459735  216
1479459735  214
1479459735  218
1479459735  224
1479459735  230
1479459735  237
1479459735  247
1479459735  265
1479459735  286
1479459735  303
1479459735  307
1479459735  307
1479459735  319
1479459735  372
1479459735  347
1479459735  376
1479459735  372
1479459735  394
1479459735  458
1479459735  540
1479459735  606
1479459735  668
1479459735  776
1479459735  974
1479459735  1241
1479459735  1526
1479459735  1802
1479459735  2087
1479459735  2413
1479459735  2775
1479459735  3139
1479459735  3482
1479459735  3808
1479459735  4118
1479459735  4373
1479459735  4516
1479459735  4522
1479459735  4411
1479459735  4205
1479459735  3894
1479459735  3441
1479459735  2840
1479459735  2137
1479459735  1403
1479459735  686
1479459735  11
1479459735  -1145
1479459735  -1586
1479459735  -607
1479459735  -1927
1479459735  -2172
1479459735  -2314
1479459735  -2338
1479459735  -2251
1479459735  -2097
1479459735  -1930
1479459735  -1773
1479459735  -1606
1479459735  -1399
1479459735  -1148
1479459736  -710
1479459736  -901
1479459736  -589
1479459736  -500
1479459736  -392
1479459736  -259
1479459736  -139
1479459736  -77
1479459736  -64
1479459736  -52
1479459736  -5
1479459736  65
1479459736  117
1479459736  127
1479459736  114
1479459736  104
1479459736  110
1479459736  125
1479459736  136
1479459736  145
1479459736  157
1479459736  176
1479459736  195
1479459736  205
1479459736  203
1479459736  198
1479459736  202
1479459736  212
1479459736  212
1479459736  192
1479459736  177
1479459736  291
1479459736  206
1479459736  392
1479459736  458
1479459736  480
1479459736  499
1479459736  550
1479459736  622
1479459736  669
1479459736  662
1479459736  623
1479459736  591
1479459736  587
1479459736  787
1479459736  711
1479459736  664
1479459736  727
1479459736  611
1479459736  516
1479459736  703
1479459736  477
1479459736  688
1479459736  486
1479459736  507
1479459736  527
1479459736  553
1479459736  572
1479459736  548
1479459736  470
1479459736  381
1479459736  334
1479459736  328
1479459736  310
1479459736  245
1479459736  157
1479459736  105
1479459736  112
1479459736  157
1479459736  200
1479459736  227
1479459736  244
1479459736  256
1479459736  246
1479459736  258
1479459736  150
1479459736  225
1479459736  229
1479459736  235
1479459736  240
1479459736  245
1479459736  253
1479459736  267
1479459736  287
1479459736  308
1479459736  324
1479459736  328
1479459736  331
1479459736  346
1479459736  372
1479459736  392
1479459736  394
1479459736  394
1479459736  425
1479459736  493
1479459736  571
1479459736  631
1479459736  695
1479459736  817
1479459736  1029
1479459736  1305
1479459736  1594
1479459736  1874
1479459736  2167
1479459736  2501
1479459736  2865
1479459736  3230
1479459736  3572
1479459736  3896
1479459736  4193
1479459736  4424
1479459736  4539
1479459736  4522
1479459736  4391
1479459736  4165
1479459736  3827
1479459736  3346
1479459736  2723
1479459736  2009
1479459736  1272
1479459736  560
1479459736  -102
1479459736  -701
1479459736  -1220
1479459736  -1645
1479459736  -1971
1479459736  -2195
1479459736  -2307
1479459736  -2300
1479459736  -2197
1479459736  -2043
1479459736  -1884
1479459736  -1729
1479459736  -1553
1479459736  -1331
1479459736  -1077
1479459736  -841
1479459736  -670
1479459736  -560
1479459736  -467
1479459736  -346
1479459736  -208
1479459736  -97
1479459736  -49
1479459736  -44
1479459736  -29
1479459736  24
1479459736  92
1479459736  134
1479459736  138
1479459736  125
1479459736  122
1479459736  134
1479459736  149
1479459736  159
1479459736  165
1479459736  176
1479459736  195
1479459736  214
1479459736  224
1479459736  222
1479459736  219
1479459736  227
1479459736  243
1479459736  245
1479459736  229
1479459736  219
1479459736  256
1479459736  344
1479459736  440
1479459736  497
1479459736  516
1479459736  539
1479459736  596
1479459736  666
1479459736  706
1479459736  695
1479459736  657
1479459736  630
1479459736  636
1479459736  631
1479459736  629
1479459736  615
1479459736  605
1479459736  613
1479459736  627
1479459736  631
1479459736  624
1479459736  625
1479459736  642
1479459736  655
1479459736  639
1479459736  601
1479459736  595
1479459736  661
1479459736  768
1479459736  829
1479459736  800
1479459736  729
1479459736  699
1479459736  730
1479459736  759
1479459736  719
1479459736  623
1479459736  527
1479459736  548
1479459736  568
1479459736  590
1479459736  598
1479459736  561
1479459736  477
1479459736  539
1479459736  512
1479459736  394
1479459736  354
1479459736  344
1479459736  317
1479459736  248
1479459736  168
1479459736  127
1479459736  140
1479459736  184
1479459736  225
1479459736  250
1479459736  265
1479459736  272
1479459736  270
1479459736  260
1479459736  249
1479459736  243
1479459736  241
1479459736  241
1479459736  244
1479459736  261
1479459736  252
1479459736  273
1479459736  289
1479459736  308
1479459736  322
1479459736  326
1479459736  329
1479459736  345
1479459736  371
1479459736  388
1479459736  387
1479459736  392
1479459736  432
1479459736  506
1479459736  580
1479459736  637
1479459736  711
1479459736  856
1479459736  1088
1479459736  1370
1479459736  1652
1479459736  1929
1479459736  2230
1479459736  2574
1479459736  2940
1479459736  3294
1479459736  3626
1479459736  3944
1479459736  4235
1479459736  4451
1479459736  4540
1479459736  4496
1479459736  4342
1479459736  4094
1479459736  3729
1479459736  3217
1479459736  2571
1479459736  1850
1479459736  1118
1479459736  419
1479459736  -231
1479459736  -813
1479459736  -1312
1479459736  -1714
1479459736  -2016
1479459736  -2215
1479459736  -2302
1479459736  -2272
1479459736  -1989
1479459736  -1830
1479459736  -1673
1479459736  -1490
1479459736  -1263
1479459736  -633
1479459736  -427
1479459736  -297
1479459736  -160
1479459736  -62
1479459736  228
1479459736  229
1479459736  256
1479459736  242
1479459736  250
1479459736  228
1479459736  369
1479459736  273
1479459736  460
1479459736  507
1479459736  522
1479459736  612
1479459736  681
1479459736  550
1479459736  712
1479459736  693
1479459736  634
1479459736  655
1479459736  637
1479459736  643
1479459736  617
1479459736  634
1479459736  614
1479459736  631
1479459736  647
1479459736  643
1479459736  627
1479459736  649
1479459736  627
1479459736  661
1479459736  635
1479459736  593
1479459736  600
1479459736  687
1479459736  797
1479459736  838
1479459736  786
1479459736  715
1479459736  705
1479459736  750
1479459736  768
1479459736  707
1479459736  603
1479459736  529
1479459736  516
1479459736  534
1479459736  553
1479459736  574
1479459736  599
1479459736  544
1479459736  598
1479459736  454
1479459736  381
1479459736  357
1479459736  351
1479459736  311
1479459736  228
1479459736  150
1479459736  125
1479459736  154
1479459736  202
1479459736  236
1479459736  254
1479459736  265
1479459736  270
1479459736  264
1479459736  251
1479459736  240
1479459736  238
1479459736  243
1479459736  248
1479459736  253
1479459736  261
1479459736  271
1479459736  284
1479459736  320
1479459736  332
1479459736  337
1479459736  344
1479459736  361
1479459736  381
1479459736  392
1479459736  392
1479459736  408
1479459736  462
1479459736  539
1479459736  606
1479459736  660
1479459736  745
1479459736  911
1479459736  1162
1479459736  1449
1479459736  1729
1479459736  2004
1479459736  2311
1479459736  2664
1479459736  3035
1479459736  3390
1479459736  3720
1479459736  4033
1479459736  4307
1479459736  4493
1479459736  4549
1479459736  4477
1479459736  4300
1479459736  4027
1479459736  3630
1479459736  3086
1479459736  2417
1479459736  1687
1479459736  703
1479459736  271
1479459736  -361
1479459736  -923
1479459736  -1402
1479459736  -1784
1479459736  -2065
1479459736  -2240
1479459736  -2299
1479459736  -2247
1479459736  -2115
1479459736  -1952
1479459736  -1792
1479459736  -1630
1479459736  -1438
1479459736  -1203
1479459736  -951
1479459736  -736
1479459736  -592
1479459736  -496
1479459736  -267
1479459736  -134
1479459736  -25
1479459736  -21
1479459736  11
1479459736  78
1479459736  142
1479459736  164
1479459736  148
1479459736  130
1479459736  130
1479459736  146
1479459736  159
1479459736  166
1479459736  172
1479459736  188
1479459736  212
1479459736  231
1479459736  236
1479459736  628
1479459736  626
1479459736  642
1479459736  624
1479459736  613
1479459736  604
1479459736  609
1479459736  622
1479459737  629
1479459737  622
1479459737  615
1479459737  626
1479459737  647
1479459737  647
1479459737  613
1479459737  709
1479459737  809
1479459737  829
1479459737  705
1479459737  709
1479459737  752
1479459737  678
1479459737  753
1479459737  575
1479459737  513
1479459737  509
1479459737  557
1479459737  582
1479459737  601
1479459737  533
1479459737  587
1479459737  522
1479459737  372
1479459737  433
1479459737  355
1479459737  208
1479459737  140
1479459737  269
1479459737  269
1479459737  259
1479459737  247
1479459737  241
1479459737  242
1479459737  245
1479459737  248
1479459737  254
1479459737  263
1479459737  284
1479459737  272
1479459737  302
1479459737  322
1479459737  332
1479459737  332
1479459737  352
1479459737  376
1479459737  387
1479459737  387
1479459737  404
1479459737  460
1479459737  671
1479459737  769
1479459737  954
1479459737  1221
1479459737  1515
1479459737  1794
1479459737  2069
1479459737  2379
1479459737  2735
1479459737  3106
1479459737  3456
1479459737  3780
1479459737  4082
1479459737  4338
1479459737  4499
1479459737  4527
1479459737  4431
1479459737  4233
1479459737  3938
1479459737  3511
1479459737  2936
1479459737  1505
1479459737  782
1479459737  106
1479459737  -512
1479459737  -1060
1479459737  -1523
1479459737  -131
1479459737  -55
1479459737  -37
1479459737  -31
1479459737  8
1479459737  73
1479459737  124
1479459737  134
1479459737  118
1479459737  107
1479459737  113
1479459737  128
1479459737  136
1479459737  138
1479459737  145
1479459737  163
1479459737  188
1479459737  206
1479459737  210
1479459737  207
1479459737  211
1479459737  225
1479459737  231
1479459737  216
1479459737  200
1479459737  222
1479459737  299
1479459737  397
1479459737  465
1479459737  491
1479459737  510
1479459737  557
1479459737  626
1479459737  675
1479459737  678
1479459737  648
1479459737  618
1479459737  607
1479459737  607
1479459737  604
1479459737  595
1479459737  590
1479459737  597
1479459737  608
1479459737  610
1479459737  601
1479459737  600
1479459737  617
1479459737  634
1479459737  581
1479459737  557
1479459737  603
1479459737  711
1479459737  799
1479459737  799
1479459737  731
1479459737  682
1479459737  699
1479459737  741
1479459737  730
1479459737  648
1479459737  552
1479459737  502
1479459737  502
1479459737  521
1479459737  543
1479459737  571
1479459737  592
1479459737  573
1479459737  501
1479459737  411
1479459737  355
1479459737  339
1479459737  321
1479459737  264
1479459737  180
1479459737  119
1479459737  112
1479459737  148
1479459737  193
1479459737  227
1479459737  246
1479459737  257
1479459737  259
1479459737  250
1479459737  237
1479459737  227
1479459737  223
1479459737  224
1479459737  230
1479459737  238
1479459737  246
1479459737  286
1479459737  305
1479459737  266
1479459737  313
1479459737  314
1479459737  322
1479459737  345
1479459737  369
1479459737  377
1479459737  377
1479459737  402
1479459737  465
1479459737  545
1479459737  609
1479459737  671
1479459737  784
1479459737  987
1479459737  1263
1479459737  1555
1479459737  1836
1479459737  2123
1479459737  2451
1479459737  2818
1479459737  3187
1479459737  3531
1479459737  3850
1479459737  4147
1479459737  4388
1479459737  4520
1479459737  4517
1479459737  4391
1479459737  4168
1479459737  3842
1479459737  3376
1479459737  2766
1479459737  2058
1479459737  1323
1479459737  613
1479459737  -49
1479459737  -654
1479459737  -1188
1479459737  -1628
1479459737  -1962
1479459737  -2191
1479459737  -2314
1479459737  -2326
1479459737  -2237
1479459737  -2085
1479459737  -1918
1479459737  -1759
1479459737  -1590
1479459737  -1382
1479459737  -1133
1479459737  -889
1479459737  -705
1479459737  -590
1479459737  -500
1479459737  -383
1479459737  -238
1479459737  -116
1479459737  -61
1479459737  -56
1479459737  -45
1479459737  8
1479459737  82
1479459737  128
1479459737  126
1479459737  104
1479459737  94
1479459737  105
1479459737  122
1479459737  131
1479459737  134
1479459737  143
1479459737  164
1479459737  187
1479459737  198
1479459737  196
1479459737  192
1479459737  200
1479459737  215
1479459737  217
1479459737  200
1479459737  187
1479459737  219
1479459737  300
1479459737  392
1479459737  450
1479459737  473
1479459737  498
1479459737  552
1479459737  619
1479459737  659
1479459737  654
1479459737  624
1479459737  598
1479459737  589
1479459737  587
1479459737  581
1479459737  571
1479459737  568
1479459737  578
1479459737  590
1479459737  600
1479459737  508
1479459737  467
1479459737  476
1479459737  502
1479459737  528
1479459737  554
1479459737  561
1479459737  524
1479459737  446
1479459737  367
1479459737  327
1479459737  314
1479459737  283
1479459737  214
1479459737  134
1479459737  91
1479459737  102
1479459737  144
1479459737  188
1479459737  217
1479459737  234
1479459737  240
1479459737  236
1479459737  226
1479459737  218
1479459737  216
1479459737  217
1479459737  218
1479459737  222
1479459737  231
1479459737  241
1479459737  251
1479459737  266
1479459737  287
1479459737  306
1479459737  314
1479459737  316
1479459737  328
1479459737  352
1479459737  373
1479459737  376
1479459737  411
1479459737  483
1479459737  562
1479459737  378
1479459737  624
1479459737  690
1479459737  819
1479459737  1042
1479459737  1328
1479459737  1619
1479459737  2186
1479459737  2523
1479459737  2894
1479459737  3257
1479459737  3589
1479459737  3897
1479459737  4182
1479459737  4406
1479459737  4515
1479459737  4487
1479459737  4341
1479459737  4101
1479459737  3751
1479459737  3261
1479459737  2630
1479459737  1914
1479459737  1181
1479459737  480
1479459737  -172
1479459737  -766
1479459737  -1285
1479459737  -1705
1479459737  -2020
1479459737  -2228
1479459737  -2329
1479459737  -2320
1479459737  -2214
1479459737  -2055
1479459737  -1887
1479459737  -1728
1479459737  -1553
1479459737  -1336
1479459737  -846
1479459737  -1084
1479459737  -673
1479459737  -565
1479459737  -474
1479459737  -353
1479459737  -213
1479459737  -107
1479459737  -67
1479459737  -66
1479459737  -47
1479459737  13
1479459737  81
1479459737  116
1479459737  110
1479459737  96
1479459737  96
1479459737  110
1479459737  121
1479459737  122
1479459737  125
1479459737  139
1479459737  163
1479459737  183
1479459737  191
1479459737  190
1479459737  193
1479459737  207
1479459737  222
1479459737  218
1479459737  197
1479459737  192
1479459737  237
1479459737  326
1479459737  413
1479459737  461
1479459737  479
1479459737  509
1479459737  571
1479459737  637
1479459737  669
1479459737  656
1479459737  622
1479459737  599
1479459737  594
1479459737  594
1479459737  589
1479459737  581
1479459737  582
1479459737  594
1479459737  606
1479459737  606
1479459737  599
1479459737  602
1479459737  605
1479459737  627
1479459737  567
1479459737  567
1479459737  744
1479459737  638
1479459737  800
1479459737  768
1479459737  333
1479459737  295
1479459737  221
1479459737  145
1479459737  128
1479459737  168
1479459737  204
1479459737  228
1479459737  249
1479459737  242
1479459738  246
1479459738  235
1479459738  223
1479459738  218
1479459738  218
1479459738  222
1479459738  228
1479459738  236
1479459738  242
1479459738  249
1479459738  260
1479459738  277
1479459738  288
1479459738  291
1479459738  294
1479459738  311
1479459738  338
1479459738  355
1479459738  356
1479459738  364
1479459738  410
1479459738  488
1479459738  562
1479459738  617
1479459738  691
1479459738  840
1479459738  1082
1479459738  1372
1479459738  1658
1479459738  1934
1479459738  2233
1479459738  2579
1479459738  2950
1479459738  3309
1479459738  3638
1479459738  3947
1479459738  -2297
1479459738  -2172
1479459738  -2334
1479459738  -2258
1479459738  -2006
1479459738  -1682
1479459738  -1842
1479459738  -1500
1479459738  -1273
1479459738  -1020
1479459738  -640
1479459738  -540
1479459738  -443
1479459738  -175
1479459738  -79
1479459738  -49
1479459738  -49
1479459738  -25
1479459738  36
1479459738  99
1479459738  127
1479459738  119
1479459738  106
1479459738  107
1479459738  132
1479459738  120
1479459738  139
1479459738  147
1479459738  162
1479459738  183
1479459738  203
1479459738  201
1479459738  204
1479459738  216
1479459738  226
1479459738  218
1479459738  199
1479459738  205
1479459738  265
1479459738  360
1479459738  442
1479459738  482
1479459738  501
1479459738  538
1479459738  602
1479459738  662
1479459738  683
1479459738  666
1479459738  634
1479459738  613
1479459738  608
1479459738  608
1479459738  606
1479459738  602
1479459738  604
1479459738  611
1479459738  615
1479459738  611
1479459738  606
1479459738  612
1479459738  626
1479459738  626
1479459738  595
1479459738  571
1479459738  655
1479459738  758
1479459738  796
1479459738  748
1479459738  668
1479459738  681
1479459738  705
1479459738  720
1479459738  662
1479459738  563
1479459738  491
1479459738  475
1479459738  493
1479459738  515
1479459738  537
1479459738  559
1479459738  556
1479459738  503
1479459738  415
1479459738  341
1479459738  313
1479459738  303
1479459738  264
1479459738  186
1479459738  112
1479459738  87
1479459738  290
1479459738  303
1479459738  307
1479459738  312
1479459738  330
1479459738  355
1479459738  369
1479459738  371
1479459738  386
1479459738  440
1479459738  521
1479459738  594
1479459738  651
1479459738  736
1479459738  904
1479459738  1159
1479459738  1452
1479459738  1735
1479459738  2011
1479459738  2316
1479459738  2669
1479459738  3040
1479459738  3392
1479459738  3717
1479459738  4026
1479459738  4299
1479459738  4484
1479459738  4535
1479459738  4455
1479459738  4273
1479459738  3999
1479459738  3599
1479459738  3045
1479459738  2364
1479459738  1627
1479459738  901
1479459738  220
1479459738  -410
1479459738  -976
1479459738  -1455
1479459738  -1830
1479459738  -2100
1479459738  -2268
1479459738  -2326
1479459738  -2273
1479459738  -2138
1479459738  -1970
1479459738  -1810
1479459738  -1653
1479459738  -1466
1479459738  -1230
1479459738  -975
1479459738  -620
1479459738  -525
1479459738  -421
1479459738  -282
1479459738  -146
1479459738  -64
1479459738  -44
1479459738  -39
1479459738  -2
1479459738  67
1479459738  123
1479459738  135
1479459738  117
1479459738  105
1479459738  113
1479459738  128
1479459738  137
1479459738  144
1479459738  597
1479459738  651
1479459738  662
1479459738  636
1479459738  602
1479459738  586
1479459738  586
1479459738  585
1479459738  575
1479459738  564
1479459738  566
1479459738  580
1479459738  590
1479459738  586
1479459738  578
1479459738  586
1479459738  608
1479459738  614
1479459738  554
1479459738  578
1479459738  673
1479459738  773
1479459738  796
1479459738  737
1479459738  672
1479459738  671
1479459738  713
1479459738  718
1479459738  648
1479459738  544
1479459738  478
1479459738  471
1479459738  496
1479459738  522
1479459738  545
1479459738  563
1479459738  552
1479459738  494
1479459738  412
1479459738  350
1479459738  327
1479459738  312
1479459738  267
1479459738  192
1479459738  127
1479459738  110
1479459738  140
1479459738  188
1479459738  226
1479459738  247
1479459738  255
1479459738  252
1479459738  245
1479459738  235
1479459738  227
1479459738  224
1479459738  225
1479459738  231
1479459738  240
1479459738  247
1479459738  249
1479459738  256
1479459738  273
1479459738  294
1479459738  305
1479459738  310
1479459738  334
1479459738  363
1479459738  305
1479459738  374
1479459738  371
1479459738  450
1479459738  533
1479459738  749
1479459738  938
1479459738  1207
1479459738  1498
1479459738  1773
1479459738  2052
1479459738  2375
1479459738  599
1479459738  652
1479459738  2743
1479459738  3117
1479459738  3461
1479459738  3779
1479459738  4082
1479459738  4342
1479459738  4500
1479459738  4519
1479459738  4410
1479459738  4205
1479459738  3904
1479459738  3469
1479459738  2883
1479459738  2185
1479459738  1447
1479459738  729
1479459738  57
1479459738  -561
1479459738  -1109
1479459738  -1564
1479459738  -1914
1479459738  -2161
1479459738  -2304
1479459738  -2334
1479459738  -2254
1479459738  -2103
1479459738  -1934
1479459738  -1777
1479459738  -1617
1479459738  -1418
1479459738  -1172
1479459738  -729
1479459738  -923
1479459738  -608
1479459738  -520
1479459738  -409
1479459738  -268
1479459738  -142
1479459738  -76
1479459738  -64
1479459738  -55
1479459738  56
1479459738  -11
1479459738  104
1479459738  113
1479459738  90
1479459738  96
1479459738  108
1479459738  118
1479459738  128
1479459738  142
1479459738  161
1479459738  179
1479459738  192
1479459738  196
1479459738  197
1479459738  204
1479459738  215
1479459738  219
1479459738  207
1479459738  196
1479459738  221
1479459738  295
1479459738  387
1479459738  456
1479459738  489
1479459738  513
1479459738  559
1479459738  619
1479459738  663
1479459738  669
1479459738  645
1479459738  616
1479459738  600
1479459738  596
1479459738  595
1479459738  590
1479459738  586
1479459738  590
1479459738  598
1479459738  601
1479459738  596
1479459738  596
1479459738  610
1479459738  627
1479459738  618
1479459738  581
1479459738  561
1479459738  607
1479459738  712
1479459738  796
1479459738  791
1479459738  719
1479459738  669
1479459738  687
1479459738  728
1479459738  713
1479459738  623
1479459738  522
1479459738  472
1479459738  479
1479459738  508
1479459738  534
1479459738  556
1479459738  565
1479459738  537
1479459738  466
1479459738  386
1479459738  338
1479459738  323
1479459738  297
1479459738  233
1479459738  151
1479459738  101
1479459738  107
1479459738  149
1479459738  194
1479459738  223
1479459738  239
1479459738  247
1479459738  247
1479459738  238
1479459738  226
1479459738  219
1479459738  218
1479459738  220
1479459738  225
1479459738  231
1479459738  238
1479459738  245
1479459738  257
1479459738  275
1479459738  289
1479459738  296
1479459738  301
1479459738  317
1479459738  347
1479459738  370
1479459738  372
1479459738  371
1479459738  402
1479459738  473
1479459738  552
1479459738  610
1479459738  670
1479459738  789
1479459738  1005
1479459738  1287
1479459738  1575
1479459738  1848
1479459738  2133
1479459738  2466
1479459738  2835
1479459738  3200
1479459738  3537
1479459738  3853
1479459738  4152
1479459738  4396
1479459738  4527
1479459738  4516
1479459738  4383
1479459738  4158
1479459738  3833
1479459738  3370
1479459738  2756
1479459738  2041
1479459738  1301
1479459738  590
1479459738  -69
1479459738  -671
1479459738  -1199
1479459738  -1633
1479459738  -1959
1479459738  -2180
1479459738  -2296
1479459738  -2302
1479459738  -2208
1479459738  -2054
1479459738  -1887
1479459739  -1729
1479459739  -1560
1479459739  -1351
1479459739  -1103
1479459739  -864
1479459739  -684
1479459739  -568
1479459739  -471
1479459739  -206
1479459739  -94
1479459739  -45
1479459739  -348
1479459739  -38
1479459739  -16
1479459739  155
1479459739  116
1479459739  153
1479459739  142
1479459739  147
1479459739  163
1479459739  160
1479459739  163
1479459739  177
1479459739  203
1479459739  214
1479459739  200
1479459739  245
1479459739  337
1479459739  426
1479459739  471
1479459739  482
1479459739  563
1479459739  676
1479459739  636
1479459739  665
1479459739  628
1479459739  597
1479459739  585
1479459739  583
1479459739  579
1479459739  574
1479459739  571
1479459739  573
1479459739  576
1479459739  583
1479459739  596
1479459739  609
1479459739  610
1479459739  598
1479459739  586
1479459739  583
1479459739  587
1479459739  586
1479459739  579
1479459739  580
1479459739  595
1479459739  611
1479459739  605
1479459739  579
1479459739  582
1479459739  626
1479459739  710
1479459739  870
1479459739  864
1479459739  904
1479459739  983
1479459739  1057
1479459739  1086
1479459739  1083
1479459739  1096
1479459739  1149
1479459739  1214
1479459739  1245
1479459739  1231
1479459739  1197
1479459739  1143
1479459739  1116
1479459739  1096
1479459739  1101
1479459739  1112
1479459739  1088
1479459739  1013
1479459739  925
1479459739  870
1479459739  854
1479459739  829
1479459739  764
1479459739  680
1479459739  626
1479459739  617
1479459739  631
1479459739  649
1479459739  672
1479459739  698
1479459739  696
1479459739  636
1479459739  452
1479459739  416
1479459739  398
1479459739  535
1479459739  347
1479459739  266
1479459739  212
1479459739  219
1479459739  252
1479459739  246
1479459739  184
1479459739  77
1479459739  113
1479459739  67
1479459739  36
1479459739  -32
1479459739  -102
1479459739  -129
1479459739  -105
1479459739  -63
1479459739  -35
1479459739  -25
1479459739  -20
1479459739  -9
1479459739  6
1479459739  17
1479459739  21
1479459739  18
1479459739  10
1479459739  2
1479459739  -1
1479459739  5
1479459739  20
1479459739  41
1479459739  61
1479459739  77
1479459739  84
1479459739  85
1479459739  83
1479459739  82
1479459739  85
1479459739  92
1479459739  102
1479459739  117
1479459739  133
1479459739  146
1479459739  152
1479459739  151
1479459739  154
1479459739  166
1479459739  172
1479459739  177
1479459739  184
1479459739  190
1479459739  192
1479459739  190
1479459739  191
1479459739  197
1479459739  160
1479459739  207
1479459739  214
1479459739  217
1479459739  223
1479459739  238
1479459739  235
1479459739  239
1479459739  245
1479459739  248
1479459739  250
1479459739  251
1479459739  254
1479459739  257
1479459739  260
1479459739  263
1479459739  266
1479459739  270
1479459739  274
1479459739  278
1479459739  286
1479459739  289
1479459739  298
1479459739  303
1479459739  306
1479459739  309
1479459739  242
1479459739  313
1479459739  318
1479459739  325
1479459739  331
1479459739  333
1479459739  332
1479459739  331
1479459739  332
1479459739  338
1479459739  340
1479459739  341
1479459739  342
1479459739  345
1479459739  350
1479459739  353
1479459739  355
1479459739  355
1479459739  357
1479459739  362
1479459739  335
1479459739  368
1479459739  374
1479459739  377
1479459739  379
1479459739  383
1479459739  388
1479459739  392
1479459739  393
1479459739  392
1479459739  392
1479459739  394
1479459739  396
1479459739  396
1479459739  394
1479459739  393
1479459739  395
1479459739  399
1479459739  401
1479459739  434
1479459739  437
1479459739  439
1479459739  441
1479459739  441
1479459739  441
1479459739  441
1479459739  441
1479459739  442
1479459739  443
1479459739  445
1479459739  446
1479459739  447
1479459739  446
1479459739  445
1479459739  444
1479459739  446
1479459739  449
1479459739  448
1479459739  450
1479459739  444
1479459739  442
1479459739  442
1479459739  444
1479459739  444
1479459739  443
1479459739  441
1479459739  442
1479459739  444
1479459739  446
1479459739  447
1479459739  448
1479459739  452
1479459739  458
1479459739  463
1479459739  465
1479459739  464
1479459739  464
1479459739  465
1479459739  467
1479459739  469
1479459739  468
1479459739  467
1479459739  468
1479459739  471
1479459739  473
1479459739  473
1479459739  474
1479459739  476
1479459739  481
1479459739  483
1479459739  483
1479459739  481
1479459739  479
1479459739  479
1479459739  480
1479459739  480
1479459739  479
1479459739  479
1479459739  480
1479459739  481
1479459739  481
1479459739  482
1479459739  484
1479459739  486
1479459739  486
1479459739  484
1479459739  482
1479459739  482
1479459739  485
1479459739  491
1479459739  494
1479459739  494
1479459739  490
1479459739  487
1479459739  488
1479459739  491
1479459739  493
1479459739  490
1479459739  486
1479459739  483
1479459739  484
1479459739  486
1479459739  487
1479459739  486
1479459739  487
1479459739  486
1479459739  489
1479459739  490
1479459739  490
1479459739  488
1479459739  484
1479459739  479
1479459739  476
1479459739  474
1479459739  475
1479459739  475
1479459739  474
1479459739  471
1479459739  467
1479459739  465
1479459739  468
1479459739  474
1479459739  479
1479459739  481
1479459739  479
1479459739  477
1479459739  479
1479459739  483
1479459739  486
1479459739  486
1479459739  483
1479459739  482
1479459739  480
1479459739  477
1479459739  477
1479459739  482
1479459739  493
1479459739  493
1479459739  493
1479459739  489
1479459739  496
1479459739  499
1479459739  -3583
1479459739  499
1479459739  505
1479459739  508
1479459739  497
1479459739  481
1479459739  490
1479459739  545
1479459739  632
1479459739  704
1479459739  737
1479459739  750
1479459739  785
1479459739  848
1479459739  905
1479459739  921
1479459739  894
1479459739  854
1479459739  832
1479459739  828
1479459739  827
1479459739  816
1479459739  804
1479459739  805
1479459739  816
1479459739  822
1479459739  811
1479459739  797
1479459739  801
1479459739  818
1479459739  820
1479459739  787
1479459739  752
1479459739  867
1479459739  774
1479459739  966
1479459739  923
1479459739  986
1479459739  855
1479459739  852
1479459739  893
1479459739  896
1479459739  823
1479459739  718
1479459739  653
1479459739  648
1479459739  671
1479459739  691
1479459739  723
1479459739  712
1479459739  708
1479459739  654
1479459739  566
1479459739  495
1479459739  465
1479459739  447
1479459739  402
1479459739  260
1479459739  242
1479459739  268
1479459739  312
1479459739  346
1479459739  364
1479459739  371
1479459739  369
1479459739  359
1479459739  345
1479459739  336
1479459739  333
1479459739  334
1479459739  338
1479459739  343
1479459739  349
1479459739  354
1479459739  365
1479459739  382
1479459739  401
1479459739  410
1479459739  409
1479459739  414
1479459739  434
1479459739  456
1479459739  460
1479459739  464
1479459739  477
1479459739  536
1479459739  617
1479459739  683
1479459739  739
1479459739  835
1479459739  1019
1479459739  1284
1479459739  1575
1479459739  1852
1479459739  2128
1479459739  2442
1479459739  2801
1479459739  3169
1479459739  3514
1479459739  3838
1479459739  4147
1479459739  -2225
1479459739  -2265
1479459739  -2195
1479459740  -2051
1479459740  -1884
1479459740  -1728
1479459740  -1569
1479459740  -1374
1479459740  -1132
1479459740  -879
1479459740  -674
1479459740  -543
1479459740  -455
1479459740  -354
1479459740  -218
1479459740  -86
1479459740  -8
1479459740  8
1479459740  13
1479459740  54
1479459740  125
1479459740  179
1479459740  191
1479459740  179
1479459740  176
1479459740  183
1479459740  184
1479459740  179
1479459740  186
1479459740  213
1479459740  237
1479459740  235
1479459740  223
1479459740  248
1479459740  326
1479459740  422
1479459740  484
1479459740  503
1479459740  516
1479459740  561
1479459740  629
1479459740  678
1479459740  683
1479459740  656
1479459740  631
1479459740  619
1479459740  614
1479459740  605
1479459740  596
1479459740  595
1479459740  611
1479459740  616
1479459740  625
1479459740  636
1479459740  642
1479459740  636
1479459740  626
1479459740  621
1479459740  621
1479459740  616
1479459740  605
1479459740  615
1479459740  601
1479459740  634
1479459740  634
1479459740  608
1479459740  591
1479459740  623
1479459740  702
1479459740  786
1479459740  847
1479459740  831
1479459740  871
1479459740  930
1479459740  999
1479459740  1033
1479459740  1015
1479459740  970
1479459740  937
1479459740  931
1479459740  931
1479459740  921
1479459740  905
1479459740  914
1479459740  903
1479459740  919
1479459740  904
1479459740  887
1479459740  909
1479459740  981
1479459740  1066
1479459740  1115
1479459740  1119
1479459740  1120
1479459740  1159
1479459740  1225
1479459740  1269
1479459740  1235
1479459740  1200
1479459740  1174
1479459740  1149
1479459740  1128
1479459740  1124
1479459740  1136
1479459740  1125
1479459740  1066
1479459740  977
1479459740  906
1479459740  874
1479459740  852
1479459740  800
1479459740  721
1479459740  656
1479459740  631
1479459740  637
1479459740  654
1479459740  678
1479459740  710
1479459740  726
1479459740  687
1479459740  591
1479459740  490
1479459740  435
1479459740  417
1479459740  382
1479459740  237
1479459740  221
1479459740  309
1479459740  252
1479459740  229
1479459740  159
1479459740  110
1479459740  268
1479459740  67
1479459740  10
1479459740  -62
1479459740  -104
1479459740  -95
1479459740  -60
1479459740  -30
1479459740  -14
1479459740  -5
1479459740  7
1479459740  18
1479459740  31
1479459740  28
1479459740  26
1479459740  30
1479459740  22
1479459740  14
1479459740  16
1479459740  28
1479459740  47
1479459740  64
1479459740  78
1479459740  87
1479459740  90
1479459740  88
1479459740  82
1479459740  84
1479459740  79
1479459740  95
1479459740  108
1479459740  120
1479459740  127
1479459740  132
1479459740  134
1479459740  136
1479459740  137
1479459740  140
1479459740  145
1479459740  151
1479459740  157
1479459740  164
1479459740  171
1479459740  176
1479459740  178
1479459740  179
1479459740  182
1479459740  190
1479459740  199
1479459740  205
1479459740  208
1479459740  210
1479459740  215
1479459740  222
1479459740  228
1479459740  233
1479459740  236
1479459740  239
1479459740  249
1479459740  243
1479459740  255
1479459740  261
1479459740  266
1479459740  269
1479459740  273
1479459740  278
1479459740  283
1479459740  287
1479459740  290
1479459740  294
1479459740  300
1479459740  306
1479459740  309
1479459740  310
1479459740  352
1479459740  350
1479459740  349
1479459740  352
1479459740  356
1479459740  359
1479459740  360
1479459740  361
1479459740  365
1479459740  371
1479459740  377
1479459740  379
1479459740  379
1479459740  382
1479459740  387
1479459740  392
1479459740  394
1479459740  392
1479459740  389
1479459740  388
1479459740  391
1479459740  393
1479459740  394
1479459740  393
1479459740  394
1479459740  397
1479459740  400
1479459740  402
1479459740  403
1479459740  406
1479459740  411
1479459740  415
1479459740  418
1479459740  418
1479459740  417
1479459740  419
1479459740  423
1479459740  421
1479459740  424
1479459740  425
1479459740  426
1479459740  428
1479459740  430
1479459740  435
1479459740  439
1479459740  444
1479459740  447
1479459740  446
1479459740  444
1479459740  442
1479459740  443
1479459740  444
1479459740  443
1479459740  441
1479459740  441
1479459740  444
1479459740  448
1479459740  451
1479459740  452
1479459740  453
1479459740  457
1479459740  462
1479459740  466
1479459740  467
1479459740  467
1479459740  466
1479459740  466
1479459740  467
1479459740  467
1479459740  467
1479459740  467
1479459740  468
1479459740  470
1479459740  472
1479459740  473
1479459740  478
1479459740  482
1479459740  484
1479459740  484
1479459740  483
1479459740  484
1479459740  488
1479459740  491
1479459740  491
1479459740  487
1479459740  482
1479459740  481
1479459740  483
1479459740  486
1479459740  483
1479459740  485
1479459740  480
1479459740  480
1479459740  482
1479459740  483
1479459740  483
1479459740  483
1479459740  485
1479459740  488
1479459740  490
1479459740  490
1479459740  488
1479459740  485
1479459740  485
1479459740  490
1479459740  487
1479459740  489
1479459740  485
1479459740  483
1479459740  488
1479459740  480
1479459740  491
1479459740  490
1479459740  489
1479459740  491
1479459740  490
1479459740  492
1479459740  495
1479459740  493
1479459740  490
1479459740  489
1479459740  490
