-656
-1031
-1375
-1695
-1999
-2252
-2397
-2404
-2289
-2079
-1768
-1316
-712
-3
735
1448
2113
2723
3262
3708
4049
4285
4415
4430
4345
4200
4042
3892
3729
3524
3280
3044
2867
2754
2664
2547
2409
2294
2241
2234
2220
2168
2101
2059
2059
2076
2086
2079
2068
2061
2057
2046
2026
2002
1988
1987
1990
1983
1969
1965
1982
1995
1966
1885
1790
1727
1701
1677
1625
1558
1514
1516
1549
1578
1586
1581
1579
1585
1589
1582
1570
1566
1572
1571
1554
1538
1554
1598
1615
1555
1439
1361
1379
1453
1492
1459
1416
1442
1537
1633
1671
1658
1631
1606
1582
1572
1603
1678
1758
1803
1819
1847
1913
1992
2037
2030
1990
1947
1919
1905
1901
1904
1913
1924
1933
1937
1936
1929
1921
1915
1909
1893
1869
1850
1846
1848
1836
1808
1786
1784
1785
1754
1684
1607
1544
1471
1333
1103
819
531
254
-45
-393
-768
-1133
-1468
-1788
-2087
-2321
-2434
-2411
-2276
-2049
-1710
-1224
-593
123
856
1563
2223
2822
3338
3756
4075
4295
4406
4397
4288
4130
3973
3828
3662
3447
3195
2962
2796
2694
2603
2482
2344
2239
2198
2195
2178
2123
2057
2021
2024
2040
2047
2039
2029
2023
2018
2006
1987
1970
1963
1966
1968
1959
1946
1949
1970
1977
1935
1845
1754
1700
1680
1651
1591
1522
1485
1495
1529
1554
1558
1554
1559
1571
1576
1566
1554
1553
1561
1556
1535
1522
1544
1584
1582
1502
1390
1337
1380
1454
1474
1432
1404
1454
1558
1640
1658
1636
1612
1592
1572
1567
1610
1696
1778
1818
1831
1865
1940
2020
2056
2035
1987
1946
1925
1915
1911
1913
1922
1933
1938
1938
1936
1931
1924
1916
1907
1893
1875
1860
1855
1852
1838
1816
1801
1799
1787
1739
1660
1584
1525
1445
1290
1046
756
471
193
-113
-468
-846
-1209
-1546
-1869
-2162
-2375
-2455
-2400
-2241
-1990
-1616
-1090
-430
297
1026
1721
2369
2952
3446
3837
4128
4322
4409
4378
4255
4091
3934
3785
3612
3390
3140
2922
2774
2683
2591
2466
2332
2241
2211
2207
2178
2116
2055
2031
2041
2056
2061
2054
2046
2038
2029
2015
1997
1982
1974
1973
1972
1964
1958
1965
1983
1977
1922
1830
1747
1703
1685
1652
1591
1533
1510
1528
1559
1576
1577
1576
1583
1592
1591
1578
1567
1570
1576
1567
1547
1541
1571
1607
1591
1500
1395
1361
1415
1484
1493
1450
1434
1494
1595
1668
1682
1661
1633
1606
1585
1593
1652
1738
1805
1828
1841
1887
1969
2043
2066
2037
1988
1949
1929
1921
1919
1923
1931
1939
1943
1945
1944
1938
1932
1926
1918
1902
1881
1865
1858
1850
1830
1807
1797
1799
1784
1730
1652
1586
1531
1439
1260
995
701
420
142
-173
-537
-917
-1276
-1609
-1926
-2206
-2395
-2448
-2369
-2186
-1907
-1502
-947
-268
467
1194
1878
2508
3070
3543
3915
4185
4352
4408
4357
4227
4069
3916
3762
3576
3343
3094
2886
2749
2655
2553
2420
2294
2221
2205
2199
2161
2094
2040
2027
2041
2051
2047
2036
2029
2022
2012
1994
1975
1964
1963
1964
1960
1950
1945
1958
1973
1956
1888
1793
1718
1684
1664
1623
1560
1508
1499
1526
1559
1573
1573
1573
1582
1589
1582
1565
1556
1562
1569
1556
1531
1528
1560
1591
1559
1457
1360
1348
1416
1479
1472
1427
1428
1506
1610
1670
1670
1644
1619
1595
1577
1593
1659
1747
1808
1828
1844
1896
1978
2041
2048
2011
1964
1930
1912
1905
1907
1921
1938
1948
1948
1943
1938
1934
1931
1922
1905
1878
1853
1841
1838
1829
1807
1784
1777
1777
1754
1693
1616
1553
1493
1386
1188
915
624
343
56
-272
-641
-1016
-1366
-1696
-2007
-2269
-2426
-2446
-2344
-2145
-1844
-1407
-821
-125
611
1331
2008
2628
3172
3623
3970
4218
4362
4392
4315
4173
4013
3862
3702
3505
3265
3025
2838
2716
2624
2513
2378
2259
2197
2185
2176
2134
2067
2018
2007
2022
2034
2031
2018
2008
2003
1997
1983
1963
1947
1941
1941
1936
1923
1919
1934
1949
1926
1851
1758
1693
1666
1644
1594
1524
1472
1468
1498
1531
1543
1540
1539
1550
1561
1559
1546
1538
1543
1546
1533
1515
1523
1561
1584
1537
1430
1344
1348
1417
1463
1441
1400
1418
1507
1602
1645
1637
1615
1595
1574
1561
1586
1661
1749
1802
1815
1833
1890
1969
2022
2020
1980
1936
1906
1890
1883
1884
1895
1909
1917
1919
1916
1910
1902
1897
1893
1881
1860
1841
1834
1834
1824
1799
1776
1773
1775
1747
1678
1596
1533
1469
1346
1129
847
555
275
-19
-359
-733
-1101
-1442
-1766
-2074
-2322
-2452
-2442
-2316
-2100
-1777
-1308
-690
21
755
1464
2130
2739
3267
3694
4019
4248
4375
4386
4290
4136
3976
3829
3668
3460
3210
2973
2801
2693
2603
2483
2343
2234
2189
2185
2169
2116
2051
2013
2014
2028
2034
2028
2021
2015
2007
1992
1973
1957
1950
1949
1946
1935
1924
1926
1944
1951
1912
1828
1737
1680
1657
1632
1580
1516
1476
1480
1511
1540
1550
1550
1551
1557
1559
1549
1536
1534
1542
1540
1521
1506
1526
1572
1587
1524
1411
1342
1370
1446
1481
1446
1408
1441
1537
1628
1661
1646
1620
1596
1572
1566
1606
1690
1773
1813
1823
1852
1923
2004
2046
2031
1986
1945
1921
1909
1903
1906
1917
1930
1938
1938
1933
1927
1921
1917
1910
1892
1867
1850
1847
1849
1836
1809
1791
1793
1791
1752
1675
1597
1538
1467
1324
1088
799
512
236
-62
-411
-788
-1152
-1486
-1804
-2099
-2325
-2429
-2395
-2250
-2013
-1661
-1161
-519
204
938
1638
2290
2882
3393
3806
4116
4324
4422
4404
4291
4136
3982
3837
3667
3448
3196
2969
2810
2709
2615
2492
2357
2259
2221
2215
2192
2138
2081
2055
2062
2076
2078
2067
2056
2049
2040
2024
2003
1985
1979
1983
1986
1977
1964
1966
1985
1991
1946
1853
1758
1703
1682
1654
1597
1532
1499
1512
1546
1572
1578
1577
1582
1590
1590
1579
1567
1568
1576
1572
1556
1548
1572
1606
1596
1513
1406
1361
1404
1475
1491
1451
1429
1483
1587
1667
1685
1665
1639
1614
1590
1587
1633
1718
1793
1825
1836
1873
1950
2027
2057
2033
1985
1945
1923
1911
1906
1909
1920
1931
1937
1937
1931
1921
1911
1903
1895
1879
1856
1839
1834
1831
1818
1794
1778
1775
1763
1716
1641
1569
1509
1421
1256
1006
718
436
156
-154
-511
-887
-1245
-1579
-1898
-2185
-2388
-2460
-2400
-2234
-1974
-1589
-1057
-395
333
1064
1759
2403
2978
3465
3852
4139
4327
4404
4367
4242
4083
3929
3779
3600
3372
3123
2910
2768
2675
2577
2445
2310
2223
2201
2200
2169
2101
2039
2017
2031
2048
2046
2031
2018
2013
2007
1993
1971
1953
1947
1949
1949
1938
1929
1937
1957
1952
1894
1801
1719
1678
1657
1618
1553
1494
1475
1495
1528
1544
1545
1544
1551
1561
1560
1548
1538
1539
1545
1537
1520
1520
1553
1587
1563
1467
1362
1331
1384
1446
1446
1404
1399
1471
1576
1642
1648
1626
1604
1582
1560
1565
1623
1714
1785
1811
1822
1865
1946
2018
2037
2006
1958
1922
1904
1897
1896
1903
1917
1928
1931
1928
1923
1917
1913
1908
1896
1877
1856
1847
1848
1843
1822
1795
1784
1785
1768
1709
1626
1556
1497
1402
1218
952
658
376
96
-222
-585
-958
-1308
-1637
-1952
-2227
-2407
-2451
-2368
-2188
-1913
-1505
-943
-259
476
1201
1883
2513
3072
3542
3911
4180
4345
4393
4328
4188
4028
3881
3730
3539
3299
3051
2854
2730
2643
2536
2397
2267
2196
2183
2178
2138
2071
2021
2012
2027
2037
2031
2019
2013
2010
2002
1982
1959
1945
1945
1952
1949
1934
1922
1930
1945
1930
1863
1768
1695
1662
1644
1603
1536
1481
1470
1495
1527
1539
1535
1532
1541
1551
1549
1534
1523
1526
1531
1522
1504
1505
1538
1565
1531
1432
1340
1330
1393
1448
1438
1396
1401
1478
1575
1627
1624
1600
1575
1548
1529
1548
1618
1708
1765
1781
1799
1854
1937
1996
2000
1963
1919
1888
1872
1867
1870
1881
1895
1904
1905
1902
1897
1889
1884
1878
1866
1846
1826
1819
1820
1813
1791
1768
1764
1766
1741
1677
1599
1538
1478
1364
1159
883
592
312
19
-316
-686
-1053
-1396
-1723
-2036
-2296
-2447
-2460
-2353
-2151
-1845
-1399
-803
-103
631
1347
2021
2642
3188
3637
3982
4226
4368
4398
4321
4176
4014
3864
3706
3507
3262
3018
2833
2716
2627
2511
2370
2252
2198
2193
2181
2129
2058
2012
2008
2024
2033
2025
2013
2005
1998
1988
1972
1957
1949
1951
1952
1946
1935
1935
1951
1963
1933
1851
1755
1692
1669
1650
1601
1533
1487
1489
1523
1554
1563
1558
1557
1565
1568
1558
1542
1536
1546
1552
1541
1524
1532
1569
1589
1539
1431
1348
1356
1427
1471
1447
1407
1428
1519
1615
1658
1648
1622
1599
1576
1565
1595
1670
1755
1805
1820
1846
1910
1989
2035
2029
1989
1949
1922
1905
1896
1898
1910
1922
1926
1923
1919
1916
1911
1903
1891
1875
1855
1839
1833
1828
1813
1787
1768
1766
1764
1728
1655
1576
1519
1457
1330
1108
825
537
262
-30
-372
-747
-1115
-1456
-1781
-2089
-2336
-2461
-2445
-2311
-2087
-1756
-1280
-658
57
794
1501
2159
2755
3276
3703
4033
4263
4384
4389
4294
4145
3988
3839
3670
3455
3204
2968
2796
2687
2595
2475
2339
2234
2192
2189
2171
2116
2050
2011
2012
2026
2033
2028
2020
2014
2005
1990
1970
1952
1943
1942
1941
1933
1923
1927
1946
1952
1909
1819
1727
1676
1658
1632
1572
1500
1460
1470
1506
1533
1536
1530
1533
1545
1553
1546
1534
1531
1536
1533
1516
1504
1524
1563
1565
1490
1376
1313
1345
1420
1449
1413
1382
1424
1525
1612
1638
1621
1596
1573
1547
1539
1579
1665
1749
1787
1795
1823
1894
1976
2016
2001
1955
1913
1888
1875
1872
1878
1891
1902
1903
1898
1892
1886
1881
1877
1870
1855
1836
1820
1816
1814
1802
1780
1764
1761
1750
1704
1628
1554
1497
1423
1275
1035
746
463
189
-110
-459
-835
-1198
-1533
-1854
-2150
-2372
-2465
-2424
-2277
-2042
-1687
-1178
-527
196
922
1614
2261
2850
3359
3767
4072
4277
4374
4357
4246
4089
3931
3779
3603
3380
3128
2904
2750
2651
2556
2431
2297
2204
2173
2167
2139
2077
2017
1991
1997
2006
2006
1999
1994
1989
1979
1961
1941
1927
1924
1927
1926
1916
1905
1911
1932
1934
1886
1793
1704
1654
1635
1605
1545
1483
1456
1472
1506
1525
1527
1525
1535
1547
1547
1531
1517
1518
1528
1523
1502
1492
1519
1559
1551
1464
1353
1309
1358
1430
1444
1404
1384
1442
1545
1619
1633
1611
1588
1569
1551
1555
1606
1692
1764
1791
1803
1844
1922
1994
2016
1987
1941
1907
1887
1876
1871
1877
1892
1905
1908
1904
1899
1893
1888
1882
1872
1854
1833
1822
1822
1819
1798
1767
1750
1752
1742
1691
1610
1536
1480
1396
1232
979
689
405
125
-188
-546
-920
-1274
-1606
-1927
-2215
-2415
-2482
-2420
-2256
-1999
-1612
-1071
-399
332
1059
1746
2384
2958
3446
3832
4115
4294
4362
4320
4196
4041
3891
3744
3565
3338
3090
2880
2738
2646
2548
2419
2288
2205
2183
2181
2150
2085
2025
2002
2011
2022
2018
2003
1990
1982
1974
1958
1939
1926
1925
1929
1929
1919
1912
1921
1937
1925
1863
1770
1691
1652
1630
1590
1525
1469
1452
1474
1506
1522
1523
1522
1531
1541
1539
1525
1515
1520
1527
1517
1493
1485
1514
1550
1531
1438
1334
1305
1361
1428
1434
1394
1384
1448
1547
1613
1623
1603
1579
1553
1532
1542
1604
1694
1758
1776
1786
1834
1918
1989
2005
1971
1922
1888
1870
1860
1857
1866
1881
1892
1892
1888
1887
1887
1885
1876
1857
1834
1818
1814
1814
1803
1777
1752
1746
1750
1730
1668
1588
1524
1468
1369
1180
912
621
344
62
-260
-628
-1005
-1357
-1686
-2000
-2275
-2451
-2490
-2401
-2212
-1926
-1508
-939
-252
482
1204
1884
2511
3066
3529
3891
4156
4320
4372
4311
4174
4015
3866
3715
3525
3285
3037
2838
2710
2620
2513
2377
2253
2188
2177
2170
2128
2060
2008
1997
2012
2022
2017
2002
1993
1987
1979
1961
1939
1924
1922
1927
1926
1914
1906
1918
1935
1917
1845
1746
1671
1640
1623
1578
1509
1454
1447
1479
1515
1527
1521
1517
1527
1539
1538
1524
1513
1516
1521
1509
1491
1496
1533
1559
1519
1412
1318
1313
1380
1434
1419
1376
1385
1467
1565
1615
1612
1589
1567
1543
1527
1548
1619
1706
1761
1777
1795
1851
1933
1991
1996
1960
1917
1886
1869
1859
1857
1866
1879
1887
1888
1883
1876
1870
1866
1862
1850
1829
1809
1802
1803
1794
1768
1743
1737
1739
1713
1645
1564
1504
1448
1336
1129
850
560
285
-3
-338
-710
-1079
-1419
-1742
-2055
-2318
-2466
-2471
-2354
-2148
-1844
-1402
-807
-104
631
1344
2012
2624
3163
3610
3955
4199
4337
4360
4279
4134
3975
3825
3664
3463
3222
2986
2805
2688
2595
2479
2340
2223
2168
2159
2147
2099
2030
1984
1978
1994
2008
2005
1995
1984
1976
1965
1948
1931
1921
1921
1920
1909
1893
1891
1911
1927
1896
1812
1716
1656
1634
1612
1559
1490
1445
1446
1476
1503
1509
1505
1506
1516
1524
1520
1509
1504
1509
1509
1494
1478
1490
1528
1545
1488
1376
1296
1310
1387
1435
1411
1368
1388
1478
1574
1615
1603
1576
1551
1526
1513
1540
1615
1700
1749
1763
1786
1851
1932
1978
1969
1928
1887
1861
1846
1836
1836
1847
1859
1864
1863
1860
1857
1850
1842
1835
1824
1808
1793
1786
1785
1773
1749
1728
1726
1723
1687
1611
1528
1467
1403
1277
1058
776
489
212
-84
-428
-803
-1171
-1511
-1836
-2139
-2378
-2496
-2478
-2349
-2130
-1801
-1325
-700
16
752
1459
2119
2722
3246
3672
3994
4213
4327
4329
4232
4078
3915
3761
3593
3385
3139
2905
2732
2624
2535
2417
2277
2164
2117
2115
2103
2051
1984
1945
1946
1965
1974
1967
1954
1944
1936
1923
1905
1887
1879
1880
1882
1874
1860
1859
1876
1883
1845
1759
1668
1612
1590
1563
1507
1439
1400
1405
1434
1457
1461
1458
1463
1477
1484
1476
1463
1460
1470
1472
1456
1441
1455
1491
1495
1426
1318
1259
1290
1360
1384
1345
1316
1362
1464
1548
1570
1551
1529
1512
1493
1488
1530
1616
1697
1734
1742
1773
1848
1930
1968
1949
1903
1863
1842
1831
1826
1828
1840
1852
1858
1857
1852
1845
1838
1832
1826
1813
1794
1780
1776
1774
1758
1730
1711
1708
1701
1656
1578
1500
1443
1368
1219
976
683
395
119
-181
-532
-909
-1272
-1607
-1926
-2221
-2442
-2537
-2496
-2347
-2107
-1748
-1237
-587
139
872
1571
2221
2810
3316
3721
4024
4224
4313
4289
4174
4020
3865
3715
3538
3316
3067
2849
2698
2601
2507
2381
2244
2148
2116
2113
2088
2026
1961
1931
1940
1959
1965
1958
1950
1944
1934
1917
1897
1883
1880
1882
1879
1865
1854
1862
1884
1885
1834
1741
1653
1606
1587
1557
1498
1435
1404
1415
1446
1468
1472
1470
1473
1481
1483
1476
1469
1472
1480
1475
1458
1450
1475
1509
1496
1409
1300
1254
1297
1365
1379
1344
1330
1390
1492
1566
1582
1564
1541
1516
1490
1489
1540
1629
1705
1735
1746
1786
1864
1938
1966
1943
1899
1862
1840
1828
1826
1834
1846
1854
1854
1850
1846
1839
1832
1825
1816
1799
1777
1763
1759
1756
1739
1714
1701
1702
1688
1636
1558
1491
1439
1354
1182
921
629
349
73
-241
-605
-984
-1339
-1666
-1981
-2265
-2463
-2527
-2458
-2286
-2023
-1637
-1100
-432
298
1027
1717
2355
2925
3409
3793
4077
4260
4329
4285
4156
3996
3843
3692
3511
3281
3030
2819
2680
2590
2492
2361
2229
2147
2126
2122
2088
2019
1958
1940
1956
1970
1967
1951
1940
1935
1929
1914
1892
1875
1870
1872
1868
1856
1848
1861
1882
1873
1811
1715
1636
1599
1582
1544
1479
1420
1402
1426
1461
1480
1479
1475
1480
1486
1483
1470
1462
1470
1480
1471
1449
1446
1481
1518
1495
1398
1295
1271
1332
1395
1391
1345
1340
1412
1515
1579
1584
1560
1536
1510
1488
1500
1565
1657
1722
1742
1755
1805
1890
1958
1971
1937
1892
1861
1846
1837
1834
1842
1857
1868
1869
1865
1860
1854
1848
1841
1829
1811
1794
1787
1788
1782
1760
1733
1722
1723
1702
1641
1559
1492
1437
1342
1155
886
593
315
35
-286
-656
-1035
-1388
-1714
-2025
-2297
-2474
-2513
-2422
-2229
-1940
-1521
-951
-261
478
1205
1889
2515
3070
3532
3893
4153
4310
4353
4285
4146
3988
3840
3686
3491
3250
3005
2813
2689
2597
2487
2350
2228
2164
2150
2140
2096
2029
1979
1968
1982
1993
1990
1981
1975
1968
1956
1938
1921
1912
1912
1911
1902
1886
1882
1898
1914
1894
1821
1725
1653
1622
1603
1560
1495
1444
1436
1464
1495
1508
1507
1506
1516
1524
1518
1502
1493
1500
1507
1497
1478
1481
1516
1542
1500
1391
1297
1291
1359
1413
1399
1355
1365
1449
1549
1601
1598
1577
1557
1534
1516
1534
1604
1692
1747
1760
1776
1834
1919
1978
1982
1944
1901
1873
1857
1846
1843
1850
1863
1873
1875
1872
1863
1852
1844
1837
1828
1811
1793
1784
1782
1772
1749
1727
1721
1720
1693
1628
1548
1484
1421
1306
1099
821
529
249
-40
-372
-742
-1112
-1456
-1783
-2096
-2356
-2503
-2507
-2389
-2178
-1868
-1419
-818
-109
633
1349
2017
2626
3163
3608
3949
4186
4316
4334
4248
4102
3942
3793
3632
3431
3187
2947
2766
2653
2566
2454
2316
2198
2143
2136
2125
2074
2005
1961
1960
1980
1990
1981
1967
1957
1950
1940
1922
1903
1891
1889
1889
1884
1875
1876
1891
1900
1868
1790
1702
1643
1616
1589
1538
1474
1434
1435
1464
1492
1503
1503
1506
1515
1519
1510
1496
1493
1502
1506
1491
1471
1480
1518
1536
1481
1371
1292
1306
1380
1425
1402
1364
1388
1481
1575
1614
1601
1572
1547
1525
1517
1550
1626
1707
1751
1764
1788
1853
1935
1985
1980
1938
1893
1864
1850
1848
1853
1865
1876
1879
1877
1872
1865
1857
1849
1839
1822
1800
1784
1781
1783
1774
1749
1726
1719
1715
1683
1616
1538
1473
1398
1264
1042
761
470
187
-110
-450
-820
-1186
-1529
-1854
-2155
-2391
-2508
-2490
-2355
-2127
-1789
-1307
-684
28
762
1471
2133
2733
3252
3674
3996
4220
4335
4331
4226
4071
3915
3768
3600
3385
3138
2911
2748
2643
2546
2422
2287
2187
2148
2140
2116
2057
1994
1963
1970
1987
1993
1984
1973
1966
1960
1951
1934
1916
1904
1902
1900
1889
1875
1875
1894
1902
1861
1773
1683
1632
1615
1588
1527
1458
1425
1437
1470
1489
1488
1483
1490
1503
1507
1495
1480
1479
1488
1487
1468
1451
1466
1504
1508
1437
1325
1262
1292
1367
1399
1368
1341
1383
1481
1564
1587
1568
1545
1524
1500
1491
1530
1617
1703
1744
1750
1774
1844
1927
1970
1952
1900
1855
1832
1824
1820
1822
1832
1845
1854
1854
1847
1836
1827
1821
1812
1794
1772
1759
1760
1763
1750
1724
1708
1710
1705
1661
1581
1502
1444
1370
1221
978
685
398
122
-179
-531
-910
-1274
-1608
-1926
-2220
-2439
-2529
-2482
-2326
-2080
-1718
-1206
-557
166
896
1594
2244
2830
3330
3728
4027
4229
4324
4300
4181
4020
3866
3722
3554
3334
3083
2861
2711
2617
2522
2394
2257
2163
2133
2131
2107
2049
1989
1962
1970
1985
1988
1978
1967
1959
1952
1939
1920
1904
1899
1902
1903
1892
1881
1886
1906
1907
1855
1763
1676
1631
1612
1579
1516
1453
1429
1447
1482
1501
1501
1496
1501
1511
1514
1503
1492
1492
1497
1490
1470
1462
1486
1520
1507
1422
1317
1278
1324
1391
1402
1363
1348
1407
1508
1581
1595
1576
1553
1532
1512
1516
1569
1656
1729
1761
1776
1816
1890
1958
1982
1957
1912
1872
1846
1831
1827
1834
1846
1855
1858
1857
1854
1846
1836
1828
1820
1806
1787
1775
1771
1766
1747
1720
1707
1710
1698
1644
1560
1485
1429
1345
1177
919
626
342
65
-245
-602
-976
-1332
-1664
-1985
-2272
-2469
-2529
-2458
-2288
-2025
-1634
-1087
-413
317
1042
1732
2373
2946
3426
3801
4078
4260
4333
4289
4158
3996
3843
3693
3512
3281
3032
2823
2684
2590
2487
2352
2219
2138
2117
2113
2080
2013
1954
1934
1947
1964
1966
1954
1942
1932
1924
1910
1894
1880
1875
1876
1872
1857
1845
1851
1869
1861
1798
1700
1618
1581
1566
1531
1468
1411
1395
1420
1453
1466
1462
1461
1473
1486
1484
1470
1458
1460
1465
1455
1436
1437
1469
1498
1467
1368
1269
1250
1309
1370
1368
1327
1324
1393
1490
1550
1556
1536
1514
1489
1469
1483
1549
1641
1707
1728
1739
1784
1864
1931
1947
1915
1869
1835
1817
1809
1809
1819
1836
1850
1854
1850
1841
1831
1825
1819
1807
1786
1766
1758
1760
1754
1732
1706
1699
1704
1687
1627
1546
1480
1425
1330
1142
871
576
296
18
-302
-669
-1047
-1401
-1729
-2040
-2310
-2482
-2518
-2427
-2238
-1951
-1531
-958
-267
468
1189
1866
2491
3047
3511
3871
4130
4286
4330
4266
4129
3972
3823
3668
3472
3231
2987
2797
2674
2582
2468
2329
2208
2147
2135
2122
2073
2004
1956
1947
1959
1964
1959
1949
1942
1936
1926
1910
1896
1887
1885
1883
1876
1864
1863
1881
1899
1878
1803
1707
1640
1615
1597
1548
1477
1427
1424
1456
1487
1497
1494
1494
1502
1507
1499
1485
1478
1483
1485
1469
1449
1455
1493
1518
1477
1372
1282
1278
1343
1393
1374
1331
1341
1423
1519
1564
1558
1535
1516
1495
1477
1495
1565
1653
1708
1723
1741
1798
1881
1939
1941
1903
1860
1832
1818
1811
1811
1820
1831
1838
1840
1837
1832
1824
1816
1808
1795
1773
1752
1745
1746
1739
1714
1689
1682
1683
1659
1594
1513
1448
1386
1271
1065
787
495
216
-73
-407
-779
-1151
-1496
-1820
-2126
-2381
-2529
-2540
-2429
-2219
-1905
-1455
-858
-158
579
1298
1969
2579
3112
3554
3898
4143
4279
4298
4213
4067
3910
3762
3603
3403
3161
2922
2739
2623
2534
2421
2282
2164
2109
2103
2093
2043
1974
1931
1932
1951
1960
1950
1937
1931
1926
1913
1889
1867
1858
1863
1868
1859
1843
1840
1859
1876
1847
1765
1667
1604
1579
1555
1500
1429
1386
1392
1428
1457
1462
1455
1456
1468
1476
1470
1455
1448
1453
1455
1443
1430
1443
1480
1492
1432
1321
1245
1261
1332
1370
1342
1305
1336
1434
1530
1567
1553
1528
1509
1488
1475
1501
1576
1662
1712
1726
1747
1809
1891
1944
1940
1897
1851
1821
1809
1807
1812
1824
1838
1847
1848
1842
1833
1823
1817
1810
1795
1770
1749
1744
1747
1737
1711
1688
1686
1687
1655
1583
1502
1441
1375
1245
1020
732
439
160
-133
-472
-845
-1213
-1557
-1884
-2185
-2422
-2539
-2522
-2390
-2165
-1828
-1346
-721
-5
733
1445
2107
2707
3226
3648
3970
4191
4304
4300
4196
4040
3881
3735
3573
3365
3117
2882
2714
2611
2524
2404
2261
2149
2104
2101
2086
2030
1961
1923
1928
1949
1957
1946
1929
1920
1917
1911
1895
1875
1861
1860
1864
1859
1848
1846
1860
1866
1830
1749
1660
1602
1575
1547
1494
1431
1393
1397
1425
1451
1461
1461
1465
1473
1477
1471
1462
1461
1468
1465
1448
1435
1452
1489
1490
1417
1306
1245
1276
1348
1373
1336
1304
1346
1447
1534
1561
1543
1517
1496
1474
1470
1511
1593
1670
1705
1713
1745
1822
1905
1943
1923
1876
1835
1814
1805
1801
1805
1817
1829
1835
1834
1830
1823
1814
1806
1798
1785
1767
1754
1749
1745
1729
1704
1690
1690
1683
1636
1556
1479
1421
1347
1197
952
656
366
90
-210
-561
-939
-1304
-1640
-1959
-2251
-2469
-2560
-2517
-2365
-2124
-1765
-1253
-598
133
867
1559
2200
2781
3285
3691
3992
4189
4278
4257
4148
3995
3839
3688
3514
3295
3046
2823
2668
2571
2479
2354
2214
2113
2078
2076
2054
1994
1931
1902
1913
1934
1941
1932
1920
1911
1903
1889
1870
1853
1846
1847
1845
1833
1823
1829
1848
1845
1791
1698
1613
1569
1551
1519
1458
1398
1375
1393
1426
1444
1444
1441
1448
1457
1455
1444
1434
1439
1447
1441
1421
1415
1443
1480
1468
1380
1272
1233
1283
1354
1365
1322
1304
1365
1471
1548
1562
1538
1513
1491
1470
1470
1517
1599
1671
1701
1711
1748
1823
1898
1928
1903
1853
1811
1788
1780
1780
1786
1797
1807
1815
1817
1812
1801
1790
1785
1779
1761
1737
1721
1720
1719
1702
1674
1658
1658
1646
1596
1518
1448
1390
1302
1133
882
595
312
29
-285
-641
-1010
-1364
-1697
-2017
-2302
-2498
-2560
-2493
-2322
-2059
-1671
-1133
-465
268
998
1685
2318
2884
3367
3753
4037
4217
4285
4242
4116
3957
3804
3654
3476
3249
2998
2783
2639
2547
2452
2323
2189
2101
2076
2073
2044
1981
1924
1905
1918
1929
1926
1912
1905
1902
1895
1877
1855
1840
1839
1841
1837
1825
1818
1832
1853
1843
1780
1685
1606
1568
1548
1509
1446
1389
1372
1393
1424
1439
1438
1434
1439
1445
1441
1428
1420
1426
1435
1428
1407
1403
1436
1472
1450
1352
1246
1221
1283
1350
1350
1304
1296
1368
1472
1537
1541
1516
1492
1468
1448
1461
1525
1615
1679
1698
1709
1760
1847
1919
1935
1900
1851
1818
1801
1795
1795
1804
1817
1828
1829
1825
1820
1816
1813
1808
1793
1769
1747
1739
1741
1734
1708
1679
1669
1673
1655
1593
1509
1441
1385
1290
1104
838
547
266
-17
-340
-707
-1082
-1432
-1759
-2074
-2349
-2527
-2567
-2479
-2290
-2004
-1587
-1018
-331
404
1126
1805
2431
2987
3453
3815
4077
4236
4284
4224
4090
3933
3785
3632
3440
3202
2957
2763
2638
2546
2434
2294
2168
2100
2086
2078
2037
1971
1922
1910
1924
1935
1933
1921
1910
1902
1892
1876
1856
1842
1839
1843
1843
1832
1825
1838
1855
1840
1770
1672
1596
1562
1542
1499
1433
1382
1376
1405
1438
1451
1449
1448
1455
1462
1458
1446
1438
1441
1442
1430
1413
1419
1451
1471
1426
1322
1234
1232
1297
1348
1331
1288
1295
1375
1472
1525
1525
1503
1479
1454
1438
1460
1534
1623
1678
1690
1705
1763
1848
1911
1919
1884
1841
1811
1794
1784
1783
1792
1804
1812
1812
1808
1800
1791
1785
1780
1771
1754
1733
1722
1718
1709
1686
1663
1655
1654
1628
1564
1486
1424
1364
1251
1046
772
486
212
-74
-409
-784
-1158
-1502
-1826
-2135
-2396
-2549
-2563
-2452
-2246
-1939
-1492
-895
-192
545
1260
1930
2543
3082
3528
3872
4117
4256
4282
4203
4058
3899
3750
3591
3393
3151
2912
2727
2610
2519
2405
2267
2150
2093
2083
2068
2016
1949
1908
1907
1924
1932
1924
1913
1906
1898
1884
1863
1844
1837
1841
1847
1842
1828
1825
1843
1859
1832
1750
1649
1578
1550
1530
1482
1416
1373
1376
1409
1437
1444
1442
1445
1456
1457
1443
1425
1421
1430
1432
1415
1397
1410
1451
1466
1407
1295
1218
1232
1304
1347
1322
1284
1307
1397
1491
1534
1525
1500
1475
1451
1440
1470
1545
1627
1672
1684
1710
1776
1860
1911
1906
1864
1818
1788
1772
1765
1766
1774
1783
1788
1788
1785
1780
1773
1765
1756
1742
1724
1712
1709
1707
1694
1669
1651
1649
1643
1604
1530
1453
1395
1328
1196
971
687
399
125
-164
-501
-872
-1240
-1584
-1910
-2214
-2454
-2575
-2562
-2432
-2206
-1866
-1378
-749
-34
698
1401
2057
2654
3171
3591
3911
4133
4249
4249
4151
4000
3845
3700
3536
3324
3075
2842
2675
2570
2477
2354
2216
2114
2076
2073
2051
1990
1925
1893
1899
1913
1913
1901
1891
1887
1881
1867
1847
1831
1825
1828
1829
1820
1807
1808
1826
1831
1788
1699
1608
1557
1540
1515
1457
1386
1347
1357
1393
1419
1423
1418
1421
1433
1440
1434
1423
1421
1426
1422
1401
1385
1402
1438
1439
1367
1258
1201
1236
1310
1338
1304
1276
1320
1419
1503
1528
1512
1489
1467
1443
1437
1478
1563
1645
1683
1692
1722
1794
1875
1914
1896
1847
1803
1777
1765
1762
1767
1779
1791
1798
1801
1799
1792
1783
1775
1766
1750
1729
1712
1707
1705
1689
1663
1646
1646
1640
1597
1518
1441
1383
1307
1159
918
628
342
65
-237
-587
-964
-1327
-1664
-1985
-2278
-2496
-2586
-2541
-2386
-2139
-1774
-1260
-609
116
848
1546
2194
2778
3278
3680
3980
4178
4266
4241
4126
3968
3810
3658
3484
3265
3018
2797
2645
2547
2451
2323
2186
2092
2064
2064
2039
1975
1911
1884
1896
1912
1914
1901
1888
1877
1868
1852
1834
1819
1813
1815
1813
1802
1791
1799
1821
1823
1772
1679
1593
1547
1528
1495
1431
1367
1342
1361
1396
1416
1417
1414
1420
1432
1434
1421
1408
1408
1418
1415
1398
1389
1413
1447
1433
1344
1233
1189
1235
1304
1316
1276
1261
1322
1424
1496
1508
1488
1466
1444
1421
1420
1471
1560
1637
1669
1681
1722
1800
1875
1902
1875
1827
1788
1767
1758
1755
1760
1771
1782
1789
1790
1786
1776
1767
1762
1754
1738
1718
1705
1703
1697
1676
1648
1636
1638
1625
1570
1489
1418
1363
1277
1105
845
553
273
-4
-317
-680
-1058
-1414
-1744
-2061
-2345
-2540
-2600
-2528
-2354
-2089
-1696
-1150
-474
258
985
1672
2308
2877
3356
3733
4013
4192
4260
4211
4079
3920
3771
3625
3444
3213
2965
2758
2622
2530
2429
2298
2171
2093
2071
2062
2023
1958
1903
1885
1895
1905
1904
1895
1890
1887
1881
1867
1848
1832
1826
1827
1824
1812
1802
1812
1832
1824
1763
1670
1593
1559
1540
1496
1425
1365
1352
1379
1414
1427
1423
1420
1431
1444
1442
1425
1412
1415
1424
1417
1398
1395
1426
1459
1433
1334
1230
1204
1263
1325
1322
1278
1272
1344
1448
1514
1522
1501
1476
1449
1428
1442
1507
1595
1653
1669
1683
1737
1824
1894
1907
1873
1826
1791
1770
1759
1757
1765
1778
1786
1787
1787
1785
1781
1777
1772
1762
1743
1722
1711
1711
1707
1684
1656
1642
1642
1622
1561
1478
1409
1350
1250
1061
791
497
218
-62
-382
-745
-1118
-1470
-1801
-2117
-2389
-2561
-2594
-2502
-2309
-2017
-1591
-1013
-321
416
1139
1818
2442
2993
3454
3815
4077
4233
4272
4201
4058
3896
3745
3589
3396
3158
2914
2719
2594
2504
2398
2264
2138
2066
2047
2036
1996
1932
1884
1875
1892
1907
1906
1893
1883
1876
1869
1853
1832
1816
1811
1814
1810
1799
1795
1811
1828
1806
1731
1635
1565
1536
1515
1466
1396
1345
1339
1368
1400
1413
1412
1410
1416
1420
1415
1404
1400
1407
1408
1392
1372
1380
1420
1447
1405
1297
1206
1204
1273
1325
1311
1271
1287
1376
1480
1533
1529
1504
1480
1454
1437
1455
1519
1600
1652
1672
1697
1758
1839
1892
1894
1857
1815
1784
1764
1755
1756
1767
1781
1787
1787
1783
1778
1771
1764
1757
1744
1725
1707
1701
1701
1693
1669
1644
1635
1633
1606
1541
1462
1397
1331
1212
1003
727
436
157
-133
-468
-841
-1215
-1561
-1887
-2195
-2452
-2598
-2604
-2487
-2275
-1960
-1503
-896
-185
555
1267
1931
2539
3074
3515
3851
4085
4215
4233
4150
4006
3849
3701
3542
3340
3095
2856
2677
2565
2477
2361
2219
2101
2050
2048
2040
1989
1917
1873
1874
1896
1907
1899
1884
1875
1870
1861
1845
1828
1817
1815
1814
1807
1796
1797
1815
1826
1794
1712
1618
1557
1534
1510
1457
1387
1342
1344
1376
1406
1415
1410
1409
1415
1417
1409
1396
1391
1397
1397
1381
1367
1379
1416
1428
1369
1260
1186
1203
1275
1313
1285
1248
1277
1371
1463
1497
1482
1456
1436
1418
1413
1447
1524
1606
1651
1664
1689
1756
1838
1885
1876
1832
1790
1766
1757
1755
1758
1768
1780
1787
1787
1782
1775
1768
1763
1757
1743
1723
1707
1703
1702
1688
1662
1643
1641
1637
1599
1525
1447
1390
1323
1190
962
674
383
103
-194
-538
-912
-1279
-1621
-1945
-2245
-2478
-2590
-2566
-2429
-2200
-1861
-1376
-749
-34
700
1405
2062
2659
3175
3597
3918
4140
4253
4249
4147
3994
3839
3692
3524
3310
3061
2830
2665
2561
2471
2351
2214
2108
2066
2060
2039
1981
1914
1880
1885
1902
1906
1894
1881
1872
1862
1847
1829
1814
1806
1804
1801
1791
1782
1789
1811
1817
1773
1682
1589
1535
1515
1487
1427
1357
1320
1333
1370
1397
1402
1398
1404
1418
1421
1408
1392
1390
1401
1403
1386
1372
1389
1427
1430
1358
1250
1193
1226
1296
1319
1284
1259
1308
1409
1492
1514
1495
1473
1454
1432
1425
1464
1544
1621
1655
1662
1690
1759
1837
1875
1859
1815
1775
1750
1738
1735
1743
1757
1768
1770
1765
1760
1754
1748
1742
1733
1718
1700
1687
1685
1684
1669
1643
1625
1623
1615
1571
1493
1416
1356
1278
1125
880
589
303
28
-275
-628
-1008
-1372
-1708
-2026
-2318
-2535
-2624
-2576
-2418
-2167
-1797
-1279
-625
102
833
1527
2169
2750
3251
3653
3953
4149
4234
4204
4086
3931
3779
3630
3454
3229
2980
2764
2618
2522
2423
2293
2158
2070
2043
2039
2009
1947
1888
1865
1873
1885
1886
1878
1871
1863
1850
1830
1810
1798
1795
1795
1788
1774
1767
1781
1804
1799
1740
1647
1566
1526
1506
1469
1405
1345
1323
1341
1374
1394
1397
1394
1400
1411
1414
1405
1394
1394
1400
1393
1372
1364
1389
1426
1415
1328
1221
1180
1229
1296
1303
1259
1240
1299
1402
1475
1489
1470
1446
1421
1397
1399
1454
1541
1611
1635
1646
1691
1774
1849
1870
1840
1794
1762
1745
1734
1729
1734
1749
1763
1767
1763
1755
1749
1744
1738
1726
1705
1682
1670
1673
1672
1653
1623
1607
1608
1598
1550
1474
1403
1345
1256
1085
829
537
252
-30
-346
-706
-1080
-1435
-1768
-2088
-2371
-2562
-2618
-2546
-2373
-2105
-1708
-1156
-477
257
984
1668
2299
2864
3345
3725
4002
4173
4234
4187
4061
3904
3749
3594
3411
3184
2939
2732
2593
2500
2399
2266
2135
2054
2034
2030
1997
1932
1876
1859
1871
1884
1881
1867
1857
1851
1844
1829
1809
1795
1792
1795
1792
1779
1770
1781
1799
1786
1718
1620
1541
1504
1485
1445
1381
1328
1316
1341
1374
1389
1388
1386
1393
1402
1400
1385
1373
1376
1383
1378
1361
1360
1389
1415
1385
1286
1187
1167
1225
1283
1276
1233
1233
1309
1413
1474
1476
1453
1433
1413
1395
1406
1468
1556
1621
1640
1653
1703
1790
1863
1878
1841
1790
1757
1742
1734
1729
1733
1746
1761
1770
1771
1766
1758
1751
1745
1734
1717
1700
1692
1693
1687
1665
1640
1629
1628
1605
1542
1459
1391
1331
1227
1032
762
472
196
-86
-413
-785
-1162
-1512
-1838
-2151
-2423
-2593
-2622
-2521
-2321
-2024
-1593
-1013
-318
419
1137
1810
2427
2976
3435
3791
4044
4192
4230
4164
4029
3871
3720
3563
3368
3128
2880
2684
2560
2474
2370
2235
2113
2049
2040
2035
1992
1922
1868
1857
1870
1881
1877
1867
1861
1856
1847
1831
1814
1801
1798
1798
1793
1782
1777
1790
1805
1785
1715
1622
1552
1519
1495
1446
1379
1330
1324
1352
1380
1389
1386
1388
1398
1403
1394
1379
1374
1384
1390
1377
1358
1364
1401
1423
1378
1271
1185
1188
1260
1313
1295
1250
1259
1343
1442
1490
1483
1454
1429
1409
1398
1423
1492
1575
1628
1643
1661
1716
1795
1850
1851
1810
1762
1732
1721
1720
1723
1731
1740
1747
1749
1746
1738
1729
1722
1717
1706
1686
1668
1661
1660
1649
1623
1600
1596
1597
1567
1498
1419
1359
1298
1178
962
680
390
115
-174
-511
-886
-1258
-1602
-1927
-2233
-2485
-2621
-2617
-2494
-2281
-1965
-1506
-896
-183
553
1260
1919
2525
3059
3499
3833
4064
4193
4209
4122
3973
3812
3663
3502
3298
3050
2812
2637
2531
2442
2321
2176
2062
2015
2013
2000
1946
1876
1835
1836
1854
1862
1852
1838
1829
1825
1816
1800
1781
1770
1771
1773
1765
1750
1747
1767
1779
1743
1653
1556
1502
1488
1467
1407
1330
1288
1304
1348
1376
1370
1355
1358
1379
1395
1387
1365
1355
1368
1380
1369
1347
1352
1390
1410
1354
1238
1153
1166
1244
1293
1268
1226
1247
1341
1441
1484
1470
1434
1401
1378
1379
1421
1497
1570
1610
1630
1668
1737
1808
1842
1834
1803
1767
1733
1707
1700
1716
1739
1751
1744
1733
1732
1736
1733
1718
1697
1680
1669
1667
1668
1661
1639
1609
1594
1601
1603
1564
1483
1397
1336
1269
1136
904
610
314
35
-255
-591
-965
-1339
-1686
-2009
-2299
-2520
-2625
-2602
-2465
-2226
-1865
-1359
-722
-11
717
1423
2086
2682
3185
3586
3896
4118
4233
4223
4107
3947
3794
3653
3486
3261
3001
2771
2616
2522
2428
2294
2147
2048
2022
2029
2008
1942
1873
1847
1864
1882
1877
1857
1845
1846
1842
1820
1791
1775
1780
1792
1786
1761
1741
1753
1787
1795
1736
1628
1535
1496
1491
1462
1391
1315
1286
1312
1356
1374
1366
1357
1368
1388
1391
1374
1356
1358
1372
1369
1342
1325
1349
1395
1395
1311
1192
1138
1185
1267
1291
1246
1210
1257
1364
1454
1475
1446
1412
1390
1380
1389
1434
1510
1580
1617
1634
1670
1739
1811
1846
1832
1787
1741
1709
1695
1697
1711
1724
1728
1725
1723
1727
1728
1721
1708
1694
1681
1669
1660
1655
1647
1629
1607
1594
1591
1577
1531
1461
1393
1332
1239
1069
820
535
252
-31
-347
-705
-1075
-1427
-1760
-2084
-2378
-2583
-2652
-2587
-2421
-2168
-1791
-1256
-584
154
885
1571
2206
2782
3279
3674
3961
4139
4206
4167
4048
3896
3744
3589
3401
3169
2922
2717
2580
2482
2374
2236
2107
2031
2014
2008
1968
1897
1840
1826
1843
1854
1845
1825
1813
1812
1811
1799
1776
1756
1751
1760
1767
1759
1745
1746
1762
1759
1705
1613
1527
1481
1461
1429
1373
1319
1296
1309
1335
1354
1363
1368
1375
1377
1368
1357
1357
1371
1379
1363
1332
1325
1361
1403
1382
1280
1168
1139
1203
1275
1279
1233
1221
1288
1391
1457
1465
1446
1425
1398
1371
1377
1441
1537
1605
1622
1627
1674
1764
1843
1864
1827
1771
1730
1712
1708
1713
1723
1732
1734
1732
1734
1740
1740
1731
1715
1697
1683
1674
1673
1670
1653
1622
1596
1594
1604
1583
1515
1426
1361
1313
1218
1024
745
450
181
-89
-411
-788
-1171
-1519
-1835
-2143
-2422
-2607
-2647
-2548
-2347
-2059
-1648
-1089
-406
334
1065
1746
2363
2908
3369
3737
4008
4169
4209
4135
3991
3833
3689
3540
3350
3107
2853
2653
2531
2452
2353
2215
2081
2008
1999
2003
1969
1899
1841
1828
1847
1865
1860
1840
1822
1816
1816
1806
1784
1761
1754
1761
1768
1761
1750
1752
1763
1749
1685
1591
1514
1475
1454
1414
1355
1305
1293
1313
1342
1357
1360
1359
1361
1362
1356
1349
1350
1358
1357
1338
1319
1332
1378
1403
1352
1238
1148
1154
1231
1284
1262
1211
1217
1303
1408
1464
1459
1427
1394
1367
1357
1387
1462
1545
1592
1603
1626
1690
1777
1832
1828
1786
1742
1716
1704
1695
1690
1696
1712
1729
1735
1726
1709
1696
1697
1704
1700
1675
1645
1632
1638
1640
1621
1591
1573
1568
1549
1495
1420
1348
1273
1152
950
683
394
106
-194
-531
-896
-1258
-1599
-1927
-2239
-2492
-2628
-2622
-2499
-2290
-1981
-1527
-916
-199
540
1246
1900
2506
3048
3499
3841
4072
4196
4209
4124
3981
3823
3673
3508
3299
3049
2810
2635
2528
2440
2320
2175
2060
2013
2014
2005
1956
1889
1846
1844
1858
1868
1863
1852
1838
1823
1811
1802
1798
1794
1786
1773
1760
1757
1769
1789
1787
1737
1647
1560
1513
1500
1475
1415
1341
1299
1310
1349
1378
1379
1368
1367
1381
1393
1389
1374
1366
1369
1369
1355
1343
1358
1393
1396
1328
1221
1160
1191
1264
1290
1250
1214
1255
1361
1453
1478
1454
1426
1411
1396
1389
1417
1490
1572
1623
1643
1671
1733
1808
1852
1846
1808
1765
1732
1713
1708
1720
1738
1751
1751
1743
1737
1736
1735
1731
1717
1693
1666
1650
1651
1656
1645
1616
1591
1585
1580
1547
1480
1405
1340
1257
1109
878
603
326
50
-257
-611
-986
-1343
-1674
-1997
-2303
-2539
-2644
-2606
-2454
-2216
-1870
-1377
-739
-13
728
1432
2080
2664
3172
3590
3909
4120
4214
4192
4083
3936
3788
3640
3464
3243
2998
2780
2624
2518
2415
2286
2153
2062
2029
2021
1991
1930
1875
1854
1862
1869
1864
1855
1854
1853
1842
1819
1795
1781
1781
1782
1776
1761
1752
1765
1793
1796
1744
1647
1557
1511
1497
1467
1400
1326
1293
1314
1361
1390
1387
1374
1376
1394
1406
1394
1370
1361
1370
1376
1364
1350
1364
1398
1400
1328
1222
1168
1204
1275
1300
1268
1244
1287
1380
1460
1489
1480
1455
1423
1391
1391
1448
1539
1609
1628
1632
1674
1761
1842
1864
1829
1779
1749
1737
1727
1715
1713
1728
1749
1761
1758
1744
1731
1726
1728
1725
1708
1681
1662
1662
1666
1654
1625
1599
1590
1579
1541
1471
1394
1325
1234
1077
838
553
261
-28
-340
-689
-1057
-1418
-1763
-2091
-2375
-2568
-2631
-2572
-2414
-2158
-1767
-1220
-549
174
893
1581
2229
2812
3298
3674
3953
4142
4227
4195
4065
3895
3735
3588
3417
3195
2943
2720
2569
2474
2382
2259
2129
2039
2005
1996
1967
1909
1853
1828
1831
1840
1843
1841
1841
1837
1821
1794
1769
1759
1766
1774
1766
1743
1726
1739
1768
1768
1706
1601
1512
1473
1463
1431
1363
1295
1273
1303
1348
1368
1360
1351
1361
1378
1379
1359
1341
1348
1366
1364
1337
1322
1350
1392
1377
1278
1164
1134
1201
1280
1283
1231
1214
1286
1397
1466
1466
1434
1410
1393
1377
1381
1433
1521
1597
1628
1640
1677
1752
1825
1852
1825
1772
1724
1699
1695
1704
1716
1723
1724
1728
1738
1743
1732
1710
1693
1688
1685
1672
1653
1637
1628
1618
1604
1592
1580
1552
1497
1429
1368
1305
1195
1001
739
458
185
-101
-433
-804
-1175
-1516
-1839
-2158
-2440
-2617
-2645
-2545
-2354
-2075
-1662
-1087
-389
350
1065
1733
2354
2914
3386
3751
4007
4158
4202
4144
4016
3861
3706
3543
3347
3115
2878
2682
2546
2447
2342
2214
2092
2015
1991
1983
1952
1892
1837
1817
1827
1844
1848
1836
1819
1806
1800
1793
1781
1765
1755
1755
1757
1752
1743
1746
1754
1738
1674
1579
1499
1461
1445
1411
1346
1286
1272
1305
1349
1367
1358
1347
1356
1373
1374
1354
1337
1343
1357
1351
1327
1323
1359
1395
1361
1252
1152
1145
1220
1280
1262
1210
1215
1304
1411
1462
1451
1421
1401
1385
1374
1391
1454
1537
1595
1617
1638
1693
1772
1831
1841
1809
1763
1724
1702
1697
1704
1714
1718
1716
1716
1721
1720
1709
1694
1685
1680
1671
1656
1640
1630
1617
1599
1583
1578
1571
1534
1466
1394
1341
1283
1161
941
655
366
98
-183
-520
-901
-1278
-1618
-1933
-2235
-2496
-2649
-2658
-2535
-2317
-2004
-1560
-965
-258
486
1204
1865
2466
3001
3452
3805
4048
4174
4183
4098
3961
3809
3655
3481
3268
3026
2795
2618
2498
2400
2283
2152
2046
1996
1985
1964
1910
1845
1810
1812
1823
1821
1806
1798
1802
1804
1791
1764
1742
1739
1749
1754
1738
1714
1708
1729
1748
1718
1629
1526
1462
1446
1435
1389
1316
1263
1262
1297
1332
1341
1334
1332
1341
1347
1340
1329
1330
1340
1335
1308
1286
1305
1354
1370
1302
1184
1114
1145
1225
1258
1217
1175
1212
1315
1406
1433
1414
1394
1382
1362
1346
1372
1452
1544
1596
1607
1626
1687
1768
1820
1817
1775
1728
1694
1673
1664
1670
1685
1699
1705
1702
1696
1690
1684
1682
1680
1668
1644
1620
1609
1609
1604
1585
1565
1555
1544
1504
1434
1363
1308
1237
1093
852
560
274
7
-284
-633
-1020
-1394
-1728
-2039
-2330
-2564
-2680
-2656
-2512
-2271
-1917
-1420
-783
-64
669
1372
2029
2626
3142
3557
3866
4076
4182
4176
4074
3920
3760
3607
3438
3226
2983
2759
2596
2488
2389
2262
2128
2032
1997
1988
1956
1893
1836
1819
1834
1843
1833
1818
1818
1826
1824
1799
1766
1747
1751
1760
1754
1730
1712
1724
1756
1762
1706
1608
1521
1483
1473
1441
1372
1300
1273
1295
1333
1349
1342
1335
1344
1362
1365
1347
1327
1328
1347
1355
1339
1324
1339
1378
1382
1312
1204
1146
1176
1243
1268
1239
1221
1270
1366
1442
1465
1453
1437
1416
1389
1378
1416
1501
1582
1621
1631
1657
1724
1800
1840
1825
1777
1728
1697
1688
1693
1705
1715
1717
1715
1714
1714
1711
1699
1685
1669
1655
1644
1640
1639
1626
1598
1567
1558
1566
1555
1498
1410
1335
1285
1212
1055
803
506
217
-63
-367
-718
-1090
-1452
-1795
-2123
-2413
-2612
-2677
-2613
-2451
-2201
-1824
-1291
-621
113
842
1528
2162
2734
3227
3624
3919
4106
4178
4135
4011
3858
3712
3566
3384
3150
2895
2682
2545
2458
2363
2227
2085
1993
1971
1976
1953
1892
1829
1803
1810
1824
1827
1819
1813
1807
1796
1777
1758
1748
1750
1751
1740
1716
1703
1719
1749
1747
1685
1586
1503
1468
1455
1423
1358
1297
1274
1293
1325
1343
1344
1341
1345
1351
1346
1333
1327
1337
1348
1339
1313
1302
1331
1367
1351
1260
1157
1126
1178
1239
1242
1204
1199
1265
1360
1420
1429
1413
1396
1376
1356
1366
1424
1509
1572
1595
1613
1665
1747
1809
1818
1786
1744
1716
1699
1686
1676
1678
1691
1706
1714
1713
1703
1689
1680
1678
1675
1662
1642
1626
1620
1611
1591
1569
1561
1562
1540
1476
1391
1324
1272
1180
993
722
426
146
-132
-451
-820
-1202
-1562
-1894
-2206
-2473
-2642
-2677
-2588
-2404
-2122
-1702
-1125
-431
303
1020
1694
2322
2885
3357
3721
3979
4134
4178
4111
3970
3807
3658
3505
3310
3066
2816
2626
2512
2430
2320
2172
2038
1972
1969
1968
1923
1845
1788
1782
1807
1826
1821
1802
1789
1785
1783
1773
1756
1739
1729
1726
1723
1718
1717
1727
1732
1706
1636
1549
1482
1449
1422
1374
1310
1267
1267
1298
1326
1331
1324
1325
1342
1356
1348
1324
1311
1322
1338
1331
1305
1298
1329
1360
1329
1227
1131
1119
1185
1243
1236
1196
1202
1280
1375
1427
1428
1408
1384
1351
1325
1339
1412
1509
1571
1587
1599
1653
1741
1810
1822
1784
1731
1691
1674
1672
1679
1686
1689
1691
1696
1704
1706
1696
1682
1672
1667
1656
1639
1623
1612
1602
1587
1575
1570
1560
1524
1460
1393
1339
1272
1141
924
652
373
99
-197
-540
-911
-1272
-1609
-1938
-2257
-2519
-2658
-2653
-2530
-2323
-2017
-1567
-959
-243
501
1213
1871
2471
3003
3450
3796
4035
4159
4165
4076
3935
3787
3640
3472
3259
3012
2780
2609
2496
2397
2273
2133
2025
1983
1978
1960
1901
1832
1796
1803
1822
1826
1812
1797
1793
1794
1789
1771
1748
1734
1734
1738
1735
1725
1722
1735
1740
1704
1624
1538
1483
1458
1427
1366
1300
1268
1280
1312
1330
1327
1319
1322
1337
1345
1339
1323
1315
1318
1319
1310
1300
1314
1346
1349
1283
1174
1109
1136
1210
1241
1202
1162
1195
1299
1396
1429
1408
1376
1354
1337
1335
1373
1449
1525
1562
1573
1604
1678
1760
1800
1782
1734
1695
1677
1669
1663
1660
1666
1679
1691
1697
1694
1685
1673
1666
1662
1654
1638
1620
1611
1605
1591
1571
1557
1557
1547
1501
1424
1351
1299
1229
1083
842
554
275
9
-285
-636
-1019
-1387
-1720
-2034
-2331
-2568
-2682
-2653
-2502
-2258
-1908
-1421
-792
-72
670
1384
2041
2626
3128
3536
3851
4071
4182
4170
4055
3890
3728
3584
3425
3216
2963
2725
2558
2461
2378
2258
2113
2002
1963
1967
1952
1892
1820
1784
1796
1820
1827
1810
1791
1784
1787
1782
1762
1737
1724
1730
1741
1737
1720
1713
1729
1741
1704
1613
1514
1457
1442
1423
1369
1300
1261
1273
1313
1342
1344
1333
1331
1342
1348
1339
1321
1315
1323
1327
1317
1309
1327
1358
1352
1276
1170
1118
1152
1216
1232
1196
1178
1230
1328
1402
1420
1405
1389
1371
1348
1342
1385
1470
1550
1585
1593
1621
1689
1766
1805
1789
1741
1694
1669
1665
1671
1679
1684
1688
1692
1699
1699
1690
1678
1672
1671
1663
1644
1626
1620
1617
1603
1578
1560
1555
1539
1488
1413
1347
1295
1208
1035
775
486
214
-54
-364
-733
-1118
-1473
-1795
-2105
-2396
-2609
-2686
-2622
-2448
-2186
-1809
-1282
-616
122
859
1549
2179
2745
3236
3636
3933
4116
4180
4133
4014
3868
3722
3565
3373
3140
2897
2694
2553
2451
2342
2211
2086
2009
1985
1976
1942
1882
1833
1817
1826
1832
1825
1815
1812
1811
1801
1776
1749
1735
1739
1748
1743
1720
1700
1709
1737
1738
1678
1574
1485
1445
1434
1407
1346
1282
1254
1270
1307
1332
1335
1328
1326
1333
1338
1334
1326
1322
1323
1317
1306
1305
1328
1350
1321
1230
1136
1113
1166
1223
1222
1184
1185
1258
1356
1412
1413
1394
1380
1363
1341
1342
1395
1483
1555
1583
1596
1637
1711
1778
1801
1777
1734
1695
1670
1661
1667
1681
1695
1700
1699
1699
1698
1691
1678
1665
1652
1637
1621
1610
1605
1596
1578
1562
1560
1560
1534
1473
1400
1344
1289
1181
980
706
418
145
-135
-462
-836
-1214
-1564
-1889
-2199
-2470
-2644
-2683
-2594
-2405
-2116
-1692
-1120
-435
293
1011
1692
2324
2885
3348
3706
3966
4130
4182
4120
3975
3806
3652
3502
3318
3081
2827
2622
2495
2413
2316
2183
2053
1977
1963
1961
1926
1858
1797
1776
1788
1808
1813
1802
1784
1769
1762
1757
1748
1735
1724
1718
1715
1712
1712
1721
1727
1704
1638
1550
1480
1443
1418
1377
1319
1269
1254
1273
1307
1331
1335
1328
1324
1327
1331
1329
1324
1321
1315
1304
1297
1310
1344
1357
1307
1204
1122
1124
1186
1227
1205
1167
1186
1272
1364
1409
1409
1395
1379
1350
1321
1334
1409
1506
1565
1573
1581
1637
1732
1804
1810
1760
1702
1670
1665
1671
1673
1671
1670
1675
1685
1691
1685
1669
1654
1648
1642
1627
1606
1591
1585
1577
1559
1540
1536
1536
1509
1446
1373
1317
1255
1130
910
626
339
68
-221
-568
-954
-1328
-1664
-1977
-2284
-2547
-2698
-2701
-2574
-2353
-2035
-1582
-984
-282
452
1168
1839
2452
2985
3422
3758
3998
4136
4157
4068
3914
3751
3603
3449
3250
3003
2758
2573
2462
2381
2274
2136
2017
1960
1957
1954
1910
1840
1788
1780
1800
1818
1817
1801
1783
1774
1769
1762
1747
1729
1718
1715
1715
1711
1711
1721
1724
1693
1621
1537
1478
1447
1416
1364
1305
1270
1274
1298
1317
1322
1325
1334
1345
1342
1324
1310
1315
1332
1333
1307
1284
1301
1353
1373
1308
1188
1113
1143
1226
1262
1221
1175
1208
1314
1413
1443
1418
1389
1372
1360
1353
1378
1443
1518
1565
1586
1619
1685
1759
1797
1786
1749
1713
1687
1666
1652
1654
1673
1694
1700
1689
1675
1669
1672
1674
1662
1637
1609
1598
1606
1613
1596
1559
1532
1532
1537
1508
1437
1355
1288
1212
1075
851
569
278
-7
-310
-652
-1019
-1383
-1731
-2063
-2362
-2583
-2683
-2658
-2526
-2295
-1938
-1429
-788
-77
645
1348
2012
2615
3126
3529
3833
4048
4161
4156
4045
3880
3716
3571
3411
3202
2953
2718
2552
2452
2366
2246
2104
1995
1953
1951
1936
1882
1818
1785
1793
1813
1819
1808
1793
1782
1775
1764
1746
1727
1713
1707
1705
1700
1695
1700
1712
1708
1661
1578
1497
1448
1421
1383
1322
1263
1238
1250
1277
1294
1300
1304
1313
1317
1310
1298
1293
1301
1306
1292
1267
1261
1291
1328
1318
1237
1133
1090
1129
1193
1208
1176
1160
1207
1298
1372
1400
1393
1369
1335
1302
1302
1361
1450
1518
1540
1551
1599
1683
1756
1777
1753
1717
1687
1661
1637
1627
1639
1662
1673
1665
1654
1652
1658
1658
1646
1625
1604
1590
1584
1580
1565
1538
1514
1509
1517
1503
1445
1365
1301
1256
1174
1002
742
455
184
-89
-405
-772
-1149
-1498
-1825
-2150
-2450
-2656
-2717
-2646
-2484
-2241
-1868
-1327
-649
83
800
1480
2123
2713
3215
3602
3881
4065
4148
4118
3990
3817
3653
3505
3336
3113
2856
2634
2493
2412
2323
2189
2046
1957
1939
1942
1907
1833
1770
1753
1771
1782
1777
1764
1760
1757
1747
1727
1709
1697
1694
1692
1689
1681
1674
1683
1700
1698
1648
1555
1464
1413
1395
1369
1312
1246
1213
1230
1275
1307
1310
1297
1292
1300
1306
1302
1290
1285
1288
1287
1280
1281
1306
1329
1304
1217
1121
1092
1138
1194
1197
1159
1154
1216
1309
1372
1388
1381
1367
1339
1306
1308
1375
1478
1549
1559
1554
1596
1688
1770
1786
1741
1683
1651
1645
1644
1638
1635
1643
1659
1673
1676
1665
1647
1638
1640
1641
1626
1599
1580
1578
1579
1562
1531
1510
1507
1496
1448
1369
1294
1228
1133
960
704
411
121
-169
-487
-843
-1213
-1572
-1913
-2232
-2497
-2659
-2693
-2612
-2436
-2155
-1728
-1149
-464
257
969
1651
2291
2856
3318
3674
3938
4111
4169
4104
3957
3793
3649
3503
3309
3061
2809
2617
2496
2404
2288
2147
2027
1965
1951
1935
1888
1825
1784
1778
1786
1787
1780
1774
1775
1772
1758
1734
1713
1708
1716
1721
1709
1686
1677
1697
1720
1698
1614
1509
1440
1416
1400
1351
1278
1226
1223
1251
1278
1287
1288
1291
1300
1304
1299
1292
1291
1297
1294
1277
1262
1273
1310
1331
1286
1184
1100
1097
1160
1208
1195
1157
1169
1249
1345
1398
1400
1379
1355
1328
1313
1337
1407
1490
1539
1552
1571
1629
1712
1769
1774
1739
1694
1664
1649
1645
1647
1653
1661
1670
1677
1680
1672
1656
1644
1642
1640
1624
1598
1580
1577
1577
1561
1533
1514
1508
1490
1437
1360
1288
1220
1113
920
647
347
63
-217
-535
-901
-1283
-1642
-1970
-2272
-2525
-2680
-2699
-2586
-2369
-2052
-1607
-1016
-312
434
1155
1820
2423
2959
3416
3772
4015
4140
4152
4073
3940
3787
3632
3463
3262
3028
2795
2607
2481
2387
2276
2140
2018
1954
1944
1938
1892
1820
1770
1769
1792
1805
1794
1776
1769
1768
1757
1731
1706
1700
1708
1710
1695
1676
1680
1708
1722
1682
1592
1499
1447
1425
1394
1333
1265
1230
1235
1261
1280
1288
1292
1298
1304
1305
1299
1293
1292
1295
1289
1272
1259
1273
1309
1320
1261
1151
1074
1091
1168
1216
1189
1141
1158
1255
1363
1412
1395
1357
1331
1318
1319
1350
1417
1497
1548
1568
1592
1650
1731
1786
1783
1735
1681
1653
1649
1652
1652
1652
1662
1678
1689
1685
1668
1652
1651
1654
1645
1615
1587
1581
1590
1587
1558
1527
1521
1527
1502
1429
1339
1270
1204
1079
856
565
270
-7
-297
-639
-1019
-1392
-1731
-2046
-2344
-2587
-2711
-2690
-2542
-2302
-1961
-1484
-861
-142
599
1305
1956
2547
3067
3493
3814
4027
4132
4130
4037
3889
3728
3571
3401
3195
2952
2721
2548
2440
2353
2237
2099
1988
1943
1944
1932
1878
1807
1768
1772
1790
1796
1785
1775
1772
1767
1750
1725
1705
1700
1699
1692
1676
1663
1670
1693
1698
1657
1573
1487
1433
1407
1378
1324
1263
1227
1233
1266
1295
1301
1295
1295
1306
1313
1301
1282
1276
1287
1291
1273
1257
1275
1317
1322
1244
1129
1072
1112
1185
1203
1162
1138
1191
1293
1370
1387
1370
1350
1328
1297
1287
1333
1423
1501
1527
1530
1567
1653
1739
1770
1743
1697
1663
1642
1625
1614
1620
1639
1653
1653
1647
1646
1646
1641
1629
1616
1605
1591
1576
1566
1558
1546
1526
1508
1501
1489
1449
1379
1305
1243
1164
1015
774
481
188
-92
-394
-745
-1125
-1493
-1828
-2143
-2431
-2647
-2734
-2681
-2517
-2265
-1900
-1387
-729
5
739
1428
2063
2643
3149
3555
3850
4036
4116
4090
3978
3822
3662
3508
3336
3117
2866
2638
2481
2387
2300
2176
2032
1931
1902
1911
1896
1831
1759
1727
1742
1765
1766
1745
1730
1729
1734
1723
1698
1678
1679
1691
1690
1671
1654
1665
1693
1690
1625
1523
1441
1407
1394
1358
1294
1241
1230
1254
1281
1292
1293
1298
1305
1307
1300
1291
1290
1295
1297
1285
1267
1265
1291
1317
1297
1214
1119
1085
1128
1189
1201
1167
1155
1209
1306
1381
1399
1377
1342
1311
1294
1308
1367
1448
1512
1542
1564
1611
1685
1749
1773
1752
1711
1673
1648
1639
1641
1649
1660
1670
1678
1682
1679
1672
1666
1663
1654
1631
1605
1594
1598
1594
1568
1537
1529
1543
1535
1476
1388
1319
1271
1184
1001
731
438
165
-109
-430
-802
-1181
-1529
-1853
-2172
-2460
-2651
-2701
-2622
-2446
-2178
-1775
-1217
-538
188
905
1591
2232
2804
3279
3647
3920
4097
4163
4106
3962
3796
3649
3507
3325
3085
2828
2625
2501
2417
2311
2167
2033
1962
1954
1953
1909
1833
1777
1771
1795
1808
1796
1776
1771
1776
1774
1751
1716
1693
1692
1705
1708
1694
1680
1688
1709
1703
1640
1539
1453
1411
1393
1360
1300
1243
1223
1243
1277
1296
1298
1293
1294
1298
1298
1294
1293
1297
1294
1277
1260
1269
1308
1333
1291
1185
1094
1089
1156
1208
1192
1148
1158
1244
1345
1393
1386
1363
1348
1331
1310
1318
1381
1472
1539
1559
1571
1619
1702
1769
1780
1742
1689
1650
1632
1628
1634
1646
1658
1662
1661
1661
1663
1660
1651
1635
1618
1602
1593
1590
1587
1572
1543
1521
1519
1522
1494
1424
1341
1278
1223
1116
915
639
348
75
-205
-530
-899
-1275
-1629
-1961
-2271
-2530
-2683
-2704
-2607
-2413
-2112
-1668
-1073
-377
351
1062
1735
2362
2917
3376
3722
3965
4107
4142
4073
3932
3767
3608
3445
3249
3014
2779
2591
2465
2369
2258
2130
2022
1966
1950
1932
1888
1831
1793
1782
1785
1788
1789
1788
1781
1765
1748
1736
1730
1723
1712
1702
1697
1696
1699
1706
1704
1672
1603
1519
1453
1414
1384
1341
1290
1256
1251
1268
1289
1301
1308
1312
1314
1309
1294
1282
1285
1299
1302
1284
1263
1275
1319
1344
1291
1175
1089
1100
1178
1229
1205
1158
1173
1264
1368
1417
1408
1375
1343
1318
1312
1348
1423
1500
1541
1557
1588
1656
1734
1778
1775
1743
1707
1675
1650
1638
1646
1666
1677
1673
1663
1660
1665
1662
1651
1634
1620
1609
1597
1586
1574
1559
1541
1527
1522
1514
1480
1418
1345
1281
1204
1072
859
584
293
5
-294
-627
-990
-1357
-1709
-2045
-2348
-2581
-2696
-2685
-2563
-2343
-2006
-1524
-904
-201
524
1231
1900
2508
3029
3447
3769
4001
4130
4136
4031
3869
3708
3566
3407
3195
2939
2699
2532
2433
2345
2218
2071
1962
1927
1931
1912
1849
1778
1748
1763
1784
1785
1767
1754
1752
1752
1740
1715
1690
1679
1683
1689
1684
1671
1669
1685
1694
1661
1580
1485
1420
1391
1366
1319
1259
1217
1215
1243
1274
1288
1285
1280
1282
1289
1288
1279
1271
1272
1273
1265
1260
1275
1304
1303
1236
1134
1075
1101
1165
1191
1163
1142
1187
1281
1358
1381
1369
1352
1332
1303
1289
1327
1415
1503
1542
1547
1574
1649
1737
1783
1764
1711
1666
1645
1640
1639
1637
1640
1647
1656
1663
1663
1654
1641
1632
1625
1616
1601
1585
1574
1562
1544
1525
1519
1524
1513
1460
1378
1307
1260
1189
1034
781
488
209
-56
-355
-714
-1099
-1460
-1786
-2102
-2401
-2628
-2718
-2663
-2502
-2260
-1908
-1399
-743
-11
718
1404
2044
2634
3148
3556
3850
4039
4128
4113
4007
3850
3684
3524
3351
3140
2902
2683
2523
2417
2322
2204
2078
1986
1947
1934
1906
1851
1797
1772
1775
1783
1785
1782
1781
1777
1766
1743
1720
1706
1707
1712
1709
1691
1674
1681
1708
1716
1667
1568
1472
1421
1405
1381
1325
1261
1228
1238
1270
1292
1297
1294
1296
1300
1294
1281
1275
1285
1299
1290
1262
1251
1283
1329
1320
1227
1110
1065
1117
1192
1203
1156
1133
1190
1296
1376
1394
1375
1347
1316
1288
1291
1348
1438
1508
1528
1534
1575
1659
1738
1762
1731
1680
1645
1633
1630
1629
1628
1632
1638
1644
1649
1646
1636
1623
1611
1601
1588
1575
1567
1564
1552
1526
1501
1497
1506
1492
1430
1341
1270
1220
1137
962
695
397
118
-153
-461
-826
-1212
-1573
-1900
-2207
-2484
-2679
-2744
-2673
-2490
-2212
-1812
-1269
-600
133
865
1555
2187
2747
3227
3611
3894
4068
4126
4076
3951
3794
3638
3479
3294
3066
2819
2606
2460
2367
2272
2145
2013
1928
1909
1912
1882
1815
1755
1741
1762
1777
1769
1750
1743
1746
1741
1717
1688
1676
1684
1690
1680
1657
1652
1675
1700
1681
1604
1507
1439
1409
1387
1338
1271
1220
1209
1228
1255
1274
1284
1287
1288
1288
1288
1287
1284
1281
1275
1265
1259
1270
1298
1313
1275
1183
1097
1080
1132
1184
1183
1149
1149
1215
1309
1373
1385
1364
1334
1302
1284
1304
1368
1448
1503
1526
1550
1603
1680
1742
1760
1734
1686
1642
1616
1614
1626
1639
1642
1639
1641
1649
1649
1636
1616
1604
1598
1589
1574
1560
1552
1544
1529
1515
1510
1504
1472
1406
1335
1280
1220
1102
896
629
352
78
-216
-556
-925
-1287
-1630
-1967
-2294
-2563
-2714
-2728
-2630
-2443
-2149
-1707
-1115
-424
298
1009
1690
2323
2876
3323
3666
3919
4078
4122
4044
3887
3715
3567
3421
3233
2987
2733
2539
2425
2347
2240
2095
1964
1900
1896
1892
1845
1769
1717
1713
1736
1749
1739
1720
1709
1706
1702
1688
1667
1649
1643
1645
1646
1639
1634
1641
1648
1626
1560
1472
1402
1364
1338
1296
1238
1192
1182
1201
1229
1245
1248
1245
1245
1248
1249
1249
1249
1251
1244
1228
1218
1234
1271
1281
1223
1117
1042
1053
1117
1151
1122
1087
1115
1209
1300
1335
1323
1301
1285
1265
1250
1273
1347
1439
1498
1517
1536
1591
1672
1728
1730
1688
1635
1599
1585
1588
1598
1608
1614
1615
1615
1615
1613
1606
1596
1584
1567
1550
1540
1540
1538
1521
1491
1473
1477
1478
1440
1362
1285
1236
1182
1056
826
536
251
-16
-305
-651
-1035
-1406
-1741
-2057
-2364
-2618
-2754
-2741
-2606
-2383
-2064
-1604
-988
-267
479
1187
1837
2430
2958
3401
3740
3966
4077
4074
3981
3841
3691
3542
3369
3154
2909
2684
2518
2407
2308
2184
2051
1951
1909
1898
1874
1820
1760
1726
1725
1733
1737
1733
1728
1721
1709
1692
1677
1668
1666
1667
1667
1661
1653
1654
1666
1668
1630
1549
1457
1392
1361
1335
1290
1236
1199
1199
1226
1257
1270
1266
1262
1267
1274
1271
1256
1246
1252
1260
1252
1236
1243
1277
1290
1231
1120
1048
1073
1152
1191
1157
1115
1147
1250
1349
1380
1355
1319
1298
1287
1289
1323
1395
1472
1519
1537
1562
1620
1693
1737
1729
1680
1629
1599
1594
1598
1602
1605
1613
1625
1635
1630
1614
1598
1596
1598
1586
1557
1532
1528
1534
1524
1493
1465
1461
1463
1431
1358
1275
1210
1137
1000
767
475
180
-100
-395
-736
-1111
-1484
-1828
-2148
-2435
-2655
-2758
-2727
-2575
-2325
-1963
-1465
-830
-108
633
1339
1986
2567
3074
3490
3801
4000
4086
4065
3958
3806
3645
3490
3318
3104
2856
2625
2463
2368
2283
2163
2021
1918
1887
1890
1868
1804
1739
1716
1729
1744
1741
1729
1728
1729
1721
1698
1675
1664
1665
1666
1656
1643
1640
1655
1673
1663
1607
1523
1445
1397
1365
1324
1269
1220
1198
1207
1231
1256
1272
1277
1276
1270
1264
1260
1258
1259
1257
1245
1228
1226
1252
1283
1270
1191
1092
1052
1093
1156
1171
1138
1124
1176
1271
1346
1367
1351
1322
1291
1268
1277
1335
1421
1488
1516
1535
1582
1656
1721
1744
1727
1691
1655
1626
1613
1617
1635
1649
1650
1647
1648
1653
1649
1633
1618
1611
1604
1589
1569
1557
1552
1543
1524
1505
1495
1480
1436
1365
1289
1221
1127
965
720
428
135
-152
-461
-812
-1190
-1559
-1900
-2214
-2486
-2679
-2751
-2692
-2519
-2244
-1846
-1307
-642
88
821
1515
2153
2723
3207
3589
3871
4051
4122
4078
3948
3788
3636
3487
3303
3068
2817
2610
2475
2382
2278
2144
2014
1934
1910
1903
1869
1804
1744
1723
1737
1753
1753
1738
1726
1721
1715
1697
1674
1661
1665
1671
1664
1645
1637
1655
1679
1666
1597
1498
1421
1388
1372
1333
1267
1209
1195
1222
1258
1273
1269
1265
1273
1283
1279
1261
1250
1257
1265
1253
1229
1229
1265
1299
1270
1170
1072
1053
1112
1171
1169
1129
1126
1193
1291
1358
1370
1350
1320
1291
1273
1291
1355
1441
1504
1530
1545
1590
1666
1735
1757
1727
1676
1636
1620
1618
1617
1618
1627
1643
1656
1653
1638
1626
1627
1634
1623
1590
1559
1551
1564
1563
1531
1493
1480
1490
1477
1412
1320
1250
1200
1109
918
641
344
70
-207
-535
-914
-1294
-1637
-1954
-2265
-2542
-2717
-2745
-2644
-2452
-2167
-1747
-1172
-480
252
970
1648
2273
2825
3288
3654
3922
4081
4117
4043
3907
3757
3609
3445
3242
3003
2766
2573
2441
2345
2243
2118
1996
1919
1898
1895
1866
1803
1744
1723
1738
1760
1763
1747
1732
1726
1725
1713
1690
1669
1665
1671
1670
1654
1643
1658
1680
1665
1588
1485
1413
1392
1382
1336
1259
1203
1201
1238
1268
1268
1255
1256
1275
1287
1275
1249
1237
1250
1263
1250
1224
1222
1260
1292
1255
1146
1049
1045
1119
1179
1165
1115
1118
1204
1314
1372
1363
1324
1292
1272
1266
1290
1353
1430
1485
1511
1537
1591
1663
1717
1728
1698
1651
1610
1588
1587
1600
1613
1617
1616
1619
1624
1621
1605
1590
1587
1586
1571
1544
1525
1525
1529
1515
1486
1465
1459
1443
1394
1318
1242
1166
1049
852
582
284
-8
-301
-626
-987
-1360
-1718
-2051
-2351
-2591
-2727
-2737
-2628
-2414
-2087
-1622
-1019
-322
409
1125
1798
2407
2934
3366
3704
3950
4090
4106
4011
3858
3705
3568
3412
3200
2944
2703
2533
2429
2337
2211
2067
1957
1912
1906
1886
1831
1768
1733
1732
1741
1741
1733
1727
1721
1709
1686
1661
1645
1644
1648
1644
1627
1611
1617
1646
1661
1619
1524
1425
1373
1361
1340
1282
1209
1170
1182
1219
1243
1242
1235
1242
1260
1268
1254
1230
1222
1236
1248
1236
1213
1216
1253
1272
1218
1107
1028
1048
1126
1167
1135
1094
1126
1226
1319
1347
1327
1304
1290
1271
1257
1286
1368
1457
1501
1506
1527
1599
1688
1734
1717
1669
1630
1609
1596
1589
1592
1607
1621
1624
1621
1620
1619
1613
1600
1586
1572
1559
1549
1541
1533
1517
1500
1493
1496
1487
1440
1366
1296
1245
1172
1023
783
500
223
-48
-351
-708
-1088
-1449
-1778
-2099
-2407
-2648
-2756
-2718
-2568
-2336
-1997
-1506
-863
-133
603
1296
1941
2535
3058
3479
3788
3992
4094
4090
3990
3833
3668
3515
3352
3146
2899
2663
2491
2390
2309
2196
2054
1940
1895
1897
1886
1827
1752
1712
1721
1746
1749
1726
1707
1707
1715
1705
1672
1641
1637
1657
1670
1654
1629
1628
1658
1671
1620
1518
1423
1379
1366
1333
1264
1196
1172
1195
1229
1246
1246
