-2771
-2737
-2850
-2966
-2975
-2918
-2909
-2962
-2998
-2961
-2895
-2859
-2825
-2737
-2622
-2579
-2651
-2774
-2839
-2823
-2789
-2806
-2866
-2915
-2886
-2766
-2634
-2573
-2597
-2634
-2608
-2543
-2526
-2583
-2645
-2632
-2575
-2550
-2563
-2518
-2391
-2275
-2268
-2347
-2385
-2310
-2197
-2163
-2219
-2284
-2288
-2242
-2201
-2198
-2198
-2159
-2071
-1957
-1871
-1856
-1886
-1904
-1858
-1765
-1716
-1768
-1871
-1921
-1874
-1789
-1756
-1778
-1803
-1775
-1706
-1641
-1625
-1658
-1706
-1728
-1688
-1594
-1493
-1423
-1392
-1395
-1409
-1429
-1442
-1433
-1419
-1451
-1556
-1670
-1698
-1596
-1417
-1282
-1260
-1303
-1311
-1243
-1163
-1159
-1241
-1343
-1407
-1419
-1404
-1363
-1301
-1240
-1212
-1196
-1139
-1036
-959
-985
-1071
-1108
-1059
-1020
-1088
-1202
-1201
-1044
-885
-887
-1012
-1059
-934
-773
-770
-916
-1017
-956
-852
-891
-1055
-1129
-968
-680
-502
-530
-640
-656
-560
-462
-465
-551
-620
-616
-573
-571
-642
-729
-730
-626
-506
-480
-557
-647
-678
-669
-659
-629
-545
-451
-442
-534
-627
-601
-459
-323
-291
-342
-391
-386
-327
-256
-225
-279
-401
-497
-491
-410
-360
-394
-417
-338
-203
-143
-198
-245
-174
-70
-108
-304
-463
-424
-248
-132
-159
-225
-218
-155
-110
-92
-64
-19
-3
-29
-50
-41
-41
-97
-165
-156
-49
61
61
-63
-209
-259
-162
6
120
104
-5
-75
-22
108
199
190
144
164
270
361
335
228
173
257
386
374
163
-84
-141
14
157
-135
-247
-109
208
51
-165
-225
-132
-57
-123
-278
-354
-274
-136
-90
-172
-274
-277
-188
-147
-249
-441
-576
-574
-485
-421
-412
-405
-345
-257
-213
-237
-273
-248
-151
-49
-26
-89
-168
-184
-138
-100
-129
-195
-202
-106
59
264
553
1017
1686
2472
3243
3937
4573
5141
5567
5773
5747
5520
5080
4371
3397
2317
1376
719
262
-185
-692
-1097
-1167
-862
-436
-192
-220
-346
-380
-307
-266
-341
-489
-599
-635
-638
-657
-692
-699
-643
-543
-472
-506
-626
-707
-660
-533
-467
-503
-536
-465
-345
-323
-440
-558
-527
-369
-251
-276
-378
-418
-344
-230
-164
-169
-188
-178
-139
-116
-115
-114
-89
-53
-28
-7
23
56
60
27
-4
32
135
232
244
175
111
145
285
450
554
570
526
460
396
362
398
517
674
780
781
716
693
767
879
931
903
864
883
947
1000
1030
1084
1201
1330
1400
1408
1429
1484
1512
1461
1388
1396
1500
1591
1590
1562
1610
1731
1805
1762
1680
1696
1818
1922
1887
1749
1642
1660
1759
1824
1795
1692
1588
1518
1466
1405
1321
1217
1085
923
753
600
471
340
195
50
-82
-207
-327
-413
-448
-459
-509
-608
-705
-751
-768
-817
-917
-1030
-1117
-1175
-1207
-1188
-1098
-989
-956
-1037
-1140
-1150
-1050
-946
-944
-1017
-1045
-990
-933
-968
-1061
-1086
-980
-831
-784
-866
-953
-917
-786
-679
-661
-682
-675
-638
-634
-682
-717
-684
-615
-586
-614
-624
-542
-411
-361
-459
-617
-682
-573
-375
-240
-244
-329
-390
-349
-221
-99
-82
-207
-405
-539
-514
-374
-270
-304
-190
-223
-182
-86
-46
-108
-191
-179
-87
-38
-412
-429
-288
-111
-70
-203
-361
-382
-276
-184
-130
-316
-446
-417
-266
-117
-71
-127
-203
-225
-202
-184
-203
-244
-258
-230
-182
-154
-147
-129
-74
-8
29
29
6
-19
-52
-107
-173
-206
-182
-119
-77
-101
-178
-257
-277
-213
-101
-20
-29
-104
-170
-161
-89
-21
-19
-71
-122
-125
-94
-69
-73
-104
-136
-148
-115
-31
71
106
10
-154
-234
-140
50
155
82
-59
-102
-12
-142
-116
-113
-120
-104
-59
-19
-8
-17
-6
85
76
-5
-44
0
51
32
-53
-137
-164
41
79
56
-23
-97
-131
-135
-124
-100
-61
-21
10
28
32
-3
-80
-140
-114
-24
-1
-125
-314
-372
-225
0
112
57
-48
-64
8
64
38
-28
-73
-94
-112
-117
-83
-37
-38
-102
-142
-79
59
139
92
-4
-24
51
118
101
53
84
200
282
226
105
65
154
250
310
118
-121
-225
-172
-75
-54
-117
-211
-257
233
143
131
246
352
295
126
42
145
305
-230
-158
-105
-118
-176
-223
-227
-229
-272
-332
-351
-314
-265
-264
-284
-273
-219
-185
-209
-265
-295
-285
-272
-263
-249
-232
-263
-349
-408
-349
-215
-154
-239
-373
-402
-301
-227
-288
-367
180
696
1129
1984
2703
3549
4316
4911
5343
5610
5625
5324
4771
4111
3395
2570
1628
707
-4
-452
-726
-923
-1034
-1012
-878
-732
-647
-631
-689
-825
-1000
-1211
-1313
-1233
-1093
-1070
-1180
-1253
-1156
-966
-882
-1114
-1100
-1019
-1027
-1177
-1328
-1306
-1130
-987
-1036
-977
-1109
-1126
-1035
-982
-1049
-1133
-1094
-937
-813
-840
-957
-1005
-904
-740
-640
-645
-701
-744
-781
-813
-791
-689
-569
-538
-613
-672
-599
-453
-408
-526
-670
-652
-462
-289
-297
-448
-556
-494
-310
-163
-152
-231
-286
-244
-145
-69
-41
-24
30
103
154
168
178
220
276
309
314
322
361
422
451
438
423
461
538
588
580
570
636
764
855
856
841
928
1102
1221
1184
1061
1010
1089
1194
1204
1139
1110
1183
1280
1273
1130
951
852
838
823
730
576
430
335
265
192
116
59
19
-39
-158
-343
-554
-723
-795
-775
-744
-809
-999
-1214
-1304
-1239
-1153
-1210
-1411
-1572
-1534
-1344
-1205
-1241
-1374
-1431
-1359
-1256
-1236
-1296
-1348
-1440
-1460
-1396
-1248
-1103
-1063
-1157
-1298
-1352
-1256
-1347
-1327
-1330
-1362
-1384
-1377
-1357
-1343
-1353
-1390
-1088
-988
-1028
-1141
-1192
-1131
-1019
-958
-965
-992
-986
-963
-950
-941
-905
-845
-794
-774
-762
-736
-695
-672
-698
-755
-793
-774
-714
-666
-671
-720
-774
-819
-859
-869
-813
-715
-666
-705
-763
-744
-681
-717
-790
-779
-653
-531
-532
-610
-609
-475
-640
-551
-539
-572
-583
-576
-610
-693
-745
-718
-345
-373
-535
-663
-673
-639
-667
-733
-726
-600
-658
-635
-596
-586
-594
-575
-497
-405
-377
-417
-450
-388
-429
-493
-518
-508
-495
-513
-568
-630
-620
-646
-603
-520
-436
-384
-395
-462
-529
-534
-453
-420
-356
-335
-372
-410
-411
-404
-443
-532
-482
-433
-428
-447
-426
-362
-327
-368
-430
-439
-393
-360
-367
-377
-351
-315
-312
-312
-251
-136
-63
-110
-231
-285
-218
-104
-60
-97
-135
-102
-22
27
-3
-80
-142
-159
-139
-124
-141
-184
-26
-27
28
79
48
-45
-105
-97
-82
-123
-214
-204
-155
-109
-96
-106
-93
-37
13
10
-182
-154
-23
95
82
-40
-127
-81
48
144
164
166
217
293
323
288
252
285
374
434
418
371
359
398
443
475
517
592
662
657
572
494
516
625
716
714
655
636
687
725
687
616
610
685
747
736
706
754
881
979
987
945
933
954
960
939
933
955
969
953
961
1062
1220
1318
1288
1192
1137
1172
1254
1304
1290
1232
1157
1101
1094
1128
1161
1153
1125
1132
1171
1168
1077
958
931
1018
1103
1050
876
732
725
816
887
890
877
899
940
943
892
832
799
783
754
722
723
773
845
880
837
755
717
774
894
980
939
777
601
521
558
620
618
569
582
756
1087
1512
2005
2609
3339
4122
4844
5453
5961
6371
6629
6652
6399
5886
5175
3456
2603
1827
626
253
51
7
80
196
267
246
176
144
187
223
158
11
-103
-103
-27
40
71
95
117
96
13
-78
-109
-59
26
93
123
119
121
157
244
338
366
316
276
333
465
549
499
377
324
395
517
579
562
537
568
647
716
740
729
708
699
702
715
740
784
846
906
954
988
1022
1065
1107
1138
1152
1161
1168
1176
1200
1243
1274
1265
1231
1230
1299
1408
1493
1536
1555
1551
1498
1404
1350
1407
1545
1660
1694
1688
1726
1835
1971
2086
2159
2187
2177
2153
2147
2165
2180
2176
2196
2289
2429
2527
2512
2423
2365
2409
2501
2545
2515
2469
2467
2495
2494
2449
2403
2387
2381
2338
2255
2167
2087
1991
1884
1796
1757
1728
1641
1490
1339
1270
1270
1245
1124
937
775
680
593
447
265
157
167
198
119
-54
-160
-100
33
50
-103
-278
-313
-228
-173
-239
-350
-390
-346
-306
-307
-296
-214
-116
-115
-238
-370
-367
-234
-111
-107
-193
-266
-258
-203
-149
-111
-63
-10
12
-12
-60
-101
-111
-78
-14
48
57
3
-63
-78
-43
-14
-26
-39
2
81
109
47
-30
-18
91
184
176
108
101
189
277
267
197
181
258
331
305
207
149
177
221
202
152
168
276
384
393
314
248
274
355
402
343
208
85
47
99
182
235
232
214
234
302
374
397
348
260
185
166
201
244
239
162
65
36
115
242
310
274
201
179
224
280
302
299
313
351
383
374
331
280
230
183
135
109
106
108
93
50
10
25
115
251
360
388
333
246
204
244
326
357
284
158
105
176
282
296
214
162
246
397
456
364
234
213
310
398
364
249
173
212
300
324
255
164
148
226
317
351
324
278
236
201
192
236
325
396
390
317
259
272
322
341
312
275
270
268
234
196
214
287
351
378
389
407
400
338
269
282
372
427
365
250
197
216
207
132
92
183
340
394
302
212
276
449
557
500
368
316
375
431
390
288
224
238
268
253
222
237
284
291
229
174
226
370
470
438
335
191
300
395
375
269
196
226
302
309
216
281
301
322
293
260
293
358
363
274
182
115
108
201
287
281
205
156
191
280
357
397
411
398
342
254
203
244
329
339
217
74
69
207
330
300
182
138
236
364
399
360
334
342
326
269
252
347
492
555
499
417
397
433
455
441
428
429
410
356
331
240
297
330
285
209
181
223
295
364
416
394
521
619
639
638
673
696
618
439
280
437
400
303
181
91
56
49
40
34
44
71
99
104
91
79
88
98
80
37
8
15
40
53
76
142
236
288
246
145
105
1595
2126
2717
3402
4171
4943
5601
6050
6262
6265
158
170
92
86
103
125
190
362
676
1104
6083
5691
5049
4164
3143
2155
1325
690
222
-111
-320
-432
-479
-467
-383
-243
-122
-119
-249
-428
-551
-586
-574
-572
-587
-600
-605
-623
-668
-705
-686
-606
-520
-486
-509
-527
-485
-403
-357
-384
-449
-471
-424
-360
-335
-340
-321
-264
-218
-231
-279
-296
-257
-219
-226
-246
-216
-140
-83
-78
-60
24
112
93
-24
-91
1
182
281
223
95
35
86
189
270
294
271
249
294
400
478
435
300
227
336
557
709
688
580
553
681
869
962
894
747
670
743
908
1026
1034
1016
1111
1330
1520
1511
1329
1181
1232
1396
1458
1351
1246
1339
1580
1734
1673
1554
1613
1848
2019
1947
1724
1613
1710
1874
1911
1810
1710
1704
1729
1675
1535
1424
1428
1493
1494
1368
1175
1003
881
762
614
459
336
232
115
-16
-145
-247
-329
-410
-494
-562
-608
-640
-673
-720
-781
-828
-826
-784
-764
-822
-938
-1014
-998
-953
-975
-1057
-1091
-1013
-901
-899
-1022
-1146
-1128
-978
-825
-779
-853
-976
-1052
-1013
-878
-751
-756
-897
-1029
-997
-826
-693
-729
-864
-924
-821
-656
-587
-643
-719
-709
-617
-538
-543
-598
-624
-586
-535
-541
-597
-625
-581
-499
-466
-502
-557
-580
-560
-527
-501
-484
-473
-463
-448
-431
-434
-479
-541
-569
-538
-477
-430
-415
-420
-444
-490
-533
-517
-429
-348
-375
-521
-669
-691
-585
-489
-517
-640
-727
-706
-639
-640
-717
-762
-702
-586
-526
-563
-630
-634
-574
-520
-519
-552
-570
-578
-622
-725
-835
-879
-846
-791
-773
-789
-797
-783
-756
-727
-674
-611
-589
-649
-751
-798
-766
-729
-750
-785
-736
-608
-517
-554
-675
-751
-721
-641
-606
-628
-647
-644
-657
-729
-823
-841
-746
-614
-551
-586
-642
-639
-583
-551
-568
-599
-595
-585
-611
-662
-688
-666
-649
-683
-730
-710
-620
-545
-571
-673
-735
-682
-577
-524
-543
-573
-570
-575
-631
-697
-685
-579
-482
-495
-597
-662
-601
-463
-365
-366
-410
-434
-432
-449
-503
-558
-565
-530
-506
-524
-546
-516
-447
-386
-364
-349
-331
-342
-413
-480
-456
-361
-308
-377
-493
-503
-383
-275
-299
-412
-471
-428
-376
-406
-459
-418
-283
-211
-307
-483
-541
-416
-254
-235
-347
-426
-363
-238
-198
-270
-357
-376
-360
-374
-428
-468
-462
-417
-347
-260
-165
-115
-150
-243
-320
-344
-331
-326
-343
-356
-338
-289
-229
-300
-288
-279
-249
-176
-99
-78
-124
-161
-102
-183
-162
-163
-162
-150
-144
-171
-232
-290
-312
47
169
153
24
-93
-102
-31
16
-22
-87
-91
-15
66
82
47
43
109
185
186
91
-35
-109
-114
-102
-120
-163
-181
-152
-91
-38
-26
-49
-73
-82
-96
-140
-221
-312
-395
-470
-534
-554
-506
-409
-328
-290
-287
-300
-324
-362
-335
-313
-492
-608
-611
-505
-388
-335
-319
-279
-215
-177
-190
-217
-213
-183
-176
-214
-258
-259
-231
-223
-241
-188
53
504
1051
1573
2066
2648
3409
4276
5044
5559
5823
5933
5922
5691
5138
4298
3333
2401
1568
835
230
-220
-516
-672
-689
-555
-320
-110
-27
-45
-85
-124
-215
-391
-574
-650
-606
-542
-546
-608
-644
-589
-458
-329
-289
-362
-338
-409
-392
-269
-159
-134
-148
-123
-80
-96
-480
-522
-429
-285
-235
-335
-469
-492
-394
-313
-49
31
124
152
105
55
63
117
174
217
-181
-239
-199
-104
-46
-48
-62
-60
-60
-69
252
278
285
282
301
343
376
382
398
477
597
672
632
527
473
547
703
834
882
878
880
919
983
1054
1125
1173
1177
1155
1158
1209
1268
1287
1288
1339
1468
1603
1650
1612
1570
1602
1707
1814
1857
1825
1760
1726
1748
1807
1854
1872
1876
1889
1894
1862
1806
1771
1771
1758
1672
1533
1434
1410
1396
1288
1073
849
706
632
545
406
249
111
-2
-103
-185
-235
-274
-328
-400
-474
-571
-713
-869
-946
-910
-849
-890
-1027
-1135
-1126
-1063
-1071
-1157
-1205
-1132
-1016
-994
-1100
-1212
-1217
-1131
-1050
-1033
-1057
-1057
-1023
-1006
-1031
-1063
-1050
-985
-930
-930
-951
-926
-833
-745
-736
-780
-778
-690
-600
-615
-719
-791
-745
-635
-584
-628
-693
-685
-610
-537
-505
-494
-484
-474
-465
-435
-372
-310
-318
-394
-444
-399
-294
-228
-260
-357
-437
-452
-393
-301
-232
-243
-337
-442
-458
-347
-188
-107
-154
-252
-281
-202
-105
-99
-197
-291
-274
-167
-89
-116
-205
-252
-207
-119
-69
-78
-97
-82
-37
-13
-50
-131
-185
-163
-61
57
104
43
-74
-149
-111
-3
58
7
-110
-190
-198
-166
-137
-102
-48
3
7
-20
-23
22
61
29
-48
-77
-19
57
60
-26
-116
-143
-114
-80
-66
-55
-35
-33
-63
-85
-54
26
103
123
97
71
65
55
20
-21
-28
2
28
6
-67
-137
-150
-100
-32
16
40
56
63
54
27
12
38
77
67
-11
-89
-87
-18
26
-5
-64
-62
20
101
105
42
-16
-21
12
44
54
49
41
23
-12
-47
-51
0
71
112
90
17
-52
-59
3
86
123
73
-20
-59
2
100
120
26
-88
-95
21
145
152
25
-113
-136
-27
108
153
88
1
-10
62
139
145
83
33
66
150
203
165
69
9
33
103
161
177
183
208
233
226
203
197
225
255
250
223
218
257
315
357
366
361
359
362
351
307
224
134
84
90
121
133
96
34
-6
-9
10
21
12
-14
-59
-131
-207
-236
-163
-19
73
27
-86
-121
-35
58
28
-85
-132
-52
30
-22
-180
-274
-209
-81
-34
-83
-109
-29
109
177
118
7
-53
-31
27
49
17
-40
-59
32
283
678
1671
2216
2827
4225
4878
5379
5677
5775
5686
5401
4863
4036
2999
1959
1120
533
91
-317
-662
-817
-721
-464
-215
-80
-67
-129
-236
-377
-526
-647
-733
-806
-883
-925
-870
-704
-527
-457
-514
-608
-630
-552
-457
-440
-510
-601
-646
-622
-544
-442
-357
-330
-356
-398
-408
-370
-313
-285
-308
-352
-359
-303
-213
-142
-97
-59
-19
3
-20
-65
-83
-57
-33
-47
-86
-97
-58
4
33
19
1
26
111
239
359
425
424
378
331
319
346
391
430
438
418
402
434
531
651
725
726
1326
1239
1214
1282
1374
1409
1380
1345
1357
1408
698
719
793
839
811
764
810
996
1227
1351
1450
1461
1458
1491
1572
1655
1673
1618
1539
1519
1581
1669
1702
1655
1578
1536
1546
1548
1479
1341
1189
1063
964
864
741
601
447
275
110
13
-913
-1047
-1056
-1042
-1106
-1216
-1267
-1232
-1204
-1264
12
58
40
-98
-304
-453
-478
-445
-495
-681
-1357
-1363
-1271
-1206
-1263
-1376
-1392
-1262
-1104
-1069
-1170
-1284
-1291
-1198
-1098
-1060
-1074
-1100
-1125
-1158
-1182
-1151
-1049
-928
-869
-899
-973
-1014
-992
-936
-906
-929
-978
-997
-967
-914
-878
-847
-773
-634
-500
-466
-534
-610
-608
-560
-555
-634
-717
-718
-640
-563
-540
-541
-515
-458
-405
-375
-353
-326
-319
-351
-398
-404
-356
-297
-286
-327
-368
-369
-442
-286
-194
-258
-396
-457
-406
-350
-377
-440
-344
-346
-400
-471
-490
-435
-364
-369
-449
-507
-267
-314
-372
-344
-214
-96
-99
-186
-207
-115
-434
-334
-226
-196
-239
-299
-341
-353
-332
-284
-38
-127
-345
-497
-458
-320
-248
-284
-328
-299
-254
-274
-337
-349
-281
-216
-237
-307
-334
-289
-189
-236
-277
-254
-187
-161
-203
-250
-236
-169
-242
-235
-232
-173
-91
-77
-151
-233
-244
-200
-114
-106
-117
-105
-85
-102
-159
-197
-177
-118
-94
-143
-234
-286
-262
-184
-121
-103
-119
-124
-97
-77
-93
-127
-141
-127
-131
-171
-205
-192
-156
-166
-214
-216
-116
12
18
-141
-335
-383
-248
-70
-7
-85
-181
-149
20
201
252
146
-13
-89
-48
26
28
-64
-170
-207
-151
-55
5
-4
-59
-118
-146
-148
-145
-152
-137
-88
-33
-18
-53
-91
-80
-29
9
8
-17
-40
-64
-93
-106
-74
-13
24
23
32
78
114
78
-1
-14
76
163
123
-26
-137
-110
-20
-9
-92
-152
-103
9
53
-4
-86
-117
-104
-80
-32
70
185
192
50
-119
-136
12
150
113
-57
-169
-122
0
69
65
67
121
194
252
291
324
338
321
289
267
244
192
122
85
91
84
3
-104
-120
-1
148
158
-20
-232
-258
-56
184
209
-16
-273
-320
-138
50
52
-118
-279
-317
-267
-225
-221
-226
-227
-253
-293
-286
-194
-103
-123
-253
-345
-271
-81
44
-3
-145
-226
-195
-145
-177
-270
-317
-261
15
199
506
1587
2239
2921
3651
4407
5066
5513
5751
-90
-403
-578
-675
-711
-649
-491
-326
-275
-377
5881
5934
5785
5269
4395
3375
2434
1653
982
388
-551
-668
-670
-616
-615
-702
-809
-844
-786
-703
-662
-678
-727
-784
-825
-822
-762
-673
-621
-640
-695
-718
-693
-643
-600
-549
-478
-406
-384
-422
-471
-460
-389
-304
-259
-259
-279
-307
-323
-311
-248
-148
-76
-102
-206
-287
-243
-83
77
116
42
-22
24
147
222
189
105
69
107
172
229
288
354
388
350
286
290
414
589
699
680
572
477
483
602
765
888
929
911
868
838
846
925
1070
1201
1217
1118
1031
1088
1258
1394
1405
1358
1378
1482
1581
1617
1639
1704
1781
1782
1702
1640
1672
1743
1742
1645
1557
1574
1652
1659
1535
1377
1296
1300
1294
1212
1069
953
916
926
891
741
494
268
157
132
63
-131
-365
-497
-495
-462
-495
-585
-659
-691
-709
-737
-787
-890
-1066
-1247
-1280
-1105
-891
-882
-1115
-1342
-1307
-1029
-795
-815
-1014
-1148
-1102
-980
-940
-1007
-1088
-1089
-1028
-981
-984
-1013
-1014
-970
-911
-879
-888
-898
-860
-797
-776
-828
-892
-871
-758
-653
-660
-755
-814
-744
-598
-504
-535
-629
-679
-625
-507
-415
-417
-501
-569
-528
-385
-255
-251
-360
-460
-467
-409
-379
-401
-402
-337
-258
-256
-326
-354
-283
-181
-157
-221
-267
-242
-201
-236
-323
-345
-238
-107
-96
-234
-391
-415
-284
-115
-53
-128
-244
-270
-182
-90
-113
-250
-368
-346
-211
-118
-174
-332
-432
-375
-228
-138
-163
-233
-263
-243
-230
-250
-258
-225
-177
-167
-214
-285
-338
-362
-90
-184
-245
-255
-250
-262
-280
-272
-232
-188
-340
-262
-151
-67
-66
-120
-153
-114
-47
-29
-177
-187
-173
-131
-109
-146
-220
-256
-221
-173
-189
-260
-312
-301
-266
-258
-244
-160
-30
28
-63
-199
-219
-83
45
18
-127
-222
-184
-103
-93
-131
-122
-59
-46
-132
-205
-145
10
84
2
-115
-105
29
126
59
-108
-216
-202
-148
-152
-191
-167
-54
52
41
-68
-131
-51
110
191
128
1
-68
-43
6
16
-13
-45
-73
-98
-118
-111
-86
-59
-46
-33
-13
10
23
10
-27
-61
-63
-27
22
49
33
-5
-31
-43
-75
-141
-194
-167
-71
0
-36
-130
-143
2
209
318
263
133
42
21
17
6
17
-44
16
90
91
19
-55
-57
18
103
121
67
97
55
-28
-61
4
104
133
69
-20
42
-83
-166
-154
-67
30
94
110
101
81
75
104
161
194
153
48
-36
-39
17
54
45
49
110
189
214
169
121
110
98
37
-53
-86
-14
98
138
70
-15
15
187
368
388
228
42
-2
106
216
211
125
97
185
310
355
304
235
227
269
294
249
162
116
155
242
290
263
217
259
404
554
588
353
318
396
533
465
348
256
222
231
242
223
184
140
111
91
75
67
69
66
37
-10
-43
-51
-62
-109
-177
-198
-148
-83
-83
-133
-142
-57
58
82
-11
-103
-67
74
152
46
-163
-273
-172
36
155
102
-12
-50
-5
9
-78
-194
-215
-107
40
161
298
593
1132
1873
2662
3383
4025
4654
5293
5845
6170
6212
6016
5644
-728
-529
-355
-320
-392
-444
-421
-394
-469
-636
5087
4301
3322
2301
1418
745
222
-229
-593
-778
-778
-809
-769
-767
-826
-830
-703
-514
-455
-596
-793
-833
-673
-484
-455
-579
-683
-657
-553
-498
-520
-537
-487
-411
-387
-418
-432
-388
-332
-327
-352
-329
-240
-165
-198
-303
-336
-208
-7
89
28
-70
-67
26
75
26
-33
-9
62
71
7
-14
103
278
362
320
275
336
464
521
449
336
307
376
471
530
562
591
627
658
952
1015
1153
1282
1332
1309
1280
1296
1357
1426
682
721
770
812
840
877
946
1007
1016
976
1492
1556
1605
1603
1548
1505
1565
1718
1850
1851
1748
1668
1683
1738
1728
1639
1569
1594
1658
1650
1541
1418
1371
1372
1328
1194
1031
922
848
715
487
265
184
242
280
136
-157
-407
-460
-369
-313
-414
-623
-800
-860
-846
-857
-926
-1014
-1054
-1230
-1150
-1066
-1064
-1142
-1217
-1203
-1087
-940
-840
-1040
-1026
-1053
-1093
-1096
-1044
-995
-1023
-1126
-1223
-818
-857
-912
-941
-931
-909
-893
-880
-842
-786
-700
-681
-734
-739
-627
-472
-405
-463
-550
-563
-766
-814
-871
-844
-735
-650
-692
-814
-873
-802
-492
-424
-425
-483
-533
-545
-547
-566
-569
-507
-414
-387
-351
-328
-310
-299
-313
-348
-360
-300
-392
-312
-330
-408
-444
-385
-293
-260
-314
-388
-199
-163
-255
-401
-444
-320
-130
-37
-99
-239
-338
-349
-307
-261
-225
-198
-192
-226
-294
-348
-340
-262
-178
-171
-265
-379
-414
-340
-236
-196
-161
-140
-162
-187
-198
-217
-252
-257
-191
-81
-246
-319
-335
-275
-197
-170
-214
-274
-284
-228
-21
-74
-193
-272
-270
-228
-215
-245
-284
-291
-273
-246
-207
-137
-52
-13
-59
-139
-153
-82
-25
-91
-253
-345
-258
-74
17
-71
-229
-290
-208
-88
-54
-106
-167
-186
-185
-211
-243
-227
-150
-70
-61
-124
-184
-173
-110
-64
-85
-156
-58
-34
6
2
-55
-105
-72
25
75
-1
-206
-197
-153
-132
-147
-156
-120
-57
-26
-41
-164
-271
-234
-110
-41
-90
-175
-159
-33
56
-3
-129
-155
-22
133
138
-10
-163
-199
-134
-68
-67
-106
-146
-169
-176
-165
-137
-94
-54
-32
-45
-79
-105
-95
-63
-61
-100
-123
-65
41
91
27
-71
-89
-21
31
-15
-117
-173
-162
-156
-199
-258
-259
-179
-66
17
35
-23
-117
-173
-132
-30
16
-81
-261
-376
-337
-212
-136
-173
-269
-327
-319
-281
-269
-298
-339
-327
-286
-255
-253
-270
-308
-373
-444
-468
-411
-305
-240
-262
-326
-338
-263
-191
-226
-357
-454
-431
-346
-317
-361
-378
-290
-149
-65
-65
-96
-115
-145
-199
-221
-161
-54
18
20
-7
-7
27
-152
-150
-60
18
-29
-187
-325
-342
-284
-261
67
97
102
56
-43
-143
-165
-109
-61
-90
-325
-417
-471
-480
-470
-428
-332
-224
-199
-286
-352
-327
-254
-198
-188
-181
-138
-90
-111
-216
-391
-401
-330
-300
-373
-475
-497
-424
-349
-337
-311
-307
-227
-167
-189
-237
-203
-27
268
655
1129
1699
2352
3046
3740
4394
4957
5385
5660
5779
5696
5324
4637
3741
2824
2014
1283
547
-164
-682
-872
-792
-667
-647
-685
-629
-448
-285
-293
-459
-652
-769
-825
-868
-888
-837
-738
-676
-704
-779
-811
-775
-712
-675
-673
-688
-702
-688
-633
-545
-470
-457
-490
-506
-467
-418
-433
-504
-535
-447
-289
-190
-231
-323
-327
-210
-86
-80
-193
-294
-287
-194
-118
-127
-187
-211
-163
-86
-33
-13
5
36
62
54
34
62
150
245
276
225
161
161
236
321
359
376
449
608
762
787
669
562
629
842
990
926
742
681
846
1079
1164
1077
1000
1083
1262
1360
1310
1222
1226
1323
1429
1498
1544
1571
1547
1466
1412
1470
1620
1740
1740
1653
1589
1622
1721
1810
1829
1764
1655
1570
1550
1572
1565
1494
1378
1253
1137
1036
968
915
806
592
344
226
280
318
128
-252
-547
-565
-440
-463
-700
-915
-896
-733
-706
-898
-1092
-1069
-902
-844
-999
-1196
-1222
-1095
-1015
-1084
-1214
-1269
-1232
-1188
-1187
-1220
-1265
-1319
-1336
-1255
-1084
-931
-911
-1009
-1092
-1076
-1011
-996
-1054
-1100
-1061
-961
-881
-857
-856
-834
-789
-744
-716
-691
-668
-676
-719
-754
-730
-649
-585
-603
-657
-660
-580
-502
-516
-599
-627
-531
-387
-341
-445
-601
-664
-592
-466
-393
-415
-480
-531
-525
-458
-353
-261
-229
-274
-364
-437
-451
-412
-349
-299
-294
-334
-381
-385
-346
-323
-374
-458
-490
-443
-386
-406
-489
-546
-512
-423
-370
-384
-410
-374
-282
-214
-236
-325
-396
-391
-333
-295
-311
-349
-350
-295
-227
-194
-199
-207
-187
-149
-153
-240
-375
-473
-482
-424
-367
-353
-365
-376
-375
-360
-318
-243
-171
-157
-213
-288
-326
-324
-308
-294
-268
-227
-214
-184
-214
-253
-213
-87
2
-64
-259
-414
-392
-269
-362
-409
-371
-293
-256
-277
-307
-284
-221
-249
-173
-267
-418
-435
-273
-94
-71
-194
-299
-277
-176
-116
-135
-173
-190
-207
-240
-253
-213
-153
-146
-203
-265
-273
-255
-253
-258
-230
-182
-176
-241
-305
-282
-178
-93
-104
-172
-200
-147
-75
-59
-106
-164
-195
-191
-165
-128
-112
-141
-185
-167
-56
77
116
34
-68
-97
-64
-56
-108
-180
-205
-169
-109
-69
-75
-126
-176
-159
-67
32
41
-48
-149
-172
-112
-28
26
34
10
-25
-44
-58
-110
-143
-129
-98
-107
-153
-177
-122
-20
48
38
12
43
125
190
194
164
157
177
187
167
135
117
109
97
96
134
206
265
263
215
182
202
256
306
343
381
413
402
335
260
253
313
341
253
99
-166
-106
-4
-6
-99
-146
-81
-1
-32
-157
11
41
93
65
-4
1
107
182
104
-72
-245
-233
-191
-205
-263
-267
-187
-97
-87
-133
-137
-49
71
112
26
-127
-246
-255
-163
-50
8
-12
-54
-51
12
89
136
167
257
482
881
1440
2106
2812
3502
4157
4772
5329
5759
5962
5847
5407
4726
3952
3193
2461
1700
914
208
-283
-511
-551
-535
-525
-502
-437
-352
-321
-383
-505
-605
-646
-657
-695
-765
-817
-796
-711
-620
-579
-557
-613
-684
-669
-556
-420
-350
-376
-434
-429
-586
-603
-596
-578
-612
-709
-811
-825
-730
-603
-328
-221
-217
-329
-425
-362
-161
5
2
-122
-212
-186
-100
-57
-75
-101
-86
-40
1
19
16
16
51
132
218
248
200
128
114
171
241
291
343
417
479
474
431
457
608
765
771
623
495
544
720
844
843
829
930
1121
1386
1371
1345
1399
1561
1750
1847
1807
1688
1593
1263
1280
1235
1227
1254
1248
1195
1169
1225
1327
1600
1697
1814
1871
1825
1714
1640
1677
1782
1826
1721
1521
1370
1345
1383
1366
1240
1049
877
775
720
676
607
495
360
234
119
3
-120
-234
-314
-391
-510
-674
-830
-917
-935
-941
-967
-996
-985
-936
-917
-982
-1080
-1109
-1030
-921
-907
-1022
-1177
-1237
-1174
-1071
-1030
-1059
-1098
-1081
-1031
-1011
-1031
-1035
-968
-850
-783
-833
-936
-976
-903
-808
-810
-905
-962
-889
-752
-693
-739
-778
-722
-621
-592
-653
-688
-600
-469
-435
-520
-592
-544
-406
-325
-376
-501
-580
-583
-553
-532
-508
-446
-364
-326
-363
-424
-439
-394
-370
-424
-516
-540
-469
-385
-376
-419
-414
-308
-172
-122
-195
-309
-365
-344
-296
-287
-327
-359
-322
-243
-208
-274
-387
-427
-332
-179
-104
-156
-259
-297
-232
-120
-52
-78
-186
-293
-319
-268
-223
-258
-352
-406
-358
-249
-187
-231
-327
-357
-269
-131
-68
-134
-256
-316
-264
-176
-145
-177
-207
-188
-157
-175
-239
-278
-245
-179
-158
-201
-262
-286
-275
-274
-294
-296
-249
-182
-157
-189
-217
-195
-144
-126
-158
-192
-179
-128
-99
-124
-181
-227
-239
-230
-194
-110
8
97
87
-14
-113
-118
-34
40
19
-76
-153
-156
-106
-58
-40
-57
-86
-105
-90
-53
-23
-35
-68
-67
-10
78
155
181
143
57
-22
-32
36
99
87
16
-34
-20
14
15
-5
12
50
50
-7
-47
-3
90
139
108
57
47
71
69
39
23
52
100
142
181
224
245
210
124
54
37
47
45
29
21
32
45
57
92
156
212
217
164
161
138
36
44
84
73
-4
-78
-64
33
133
97
6
7
108
190
158
62
24
87
167
171
171
184
209
193
119
53
62
128
160
180
136
104
94
68
35
68
181
274
240
102
17
86
238
325
290
214
201
250
299
305
274
236
214
244
341
443
448
324
186
195
376
568
599
486
394
445
579
637
538
357
239
251
321
322
210
70
39
144
274
300
194
58
-15
-19
-10
-27
-59
-83
-83
-50
25
107
137
89
13
-11
30
82
80
16
-66
-123
-134
-97
-34
8
-19
-113
-201
-189
-64
84
145
94
13
-19
-10
-21
-81
-131
-94
45
239
465
770
1229
1858
2595
3345
4039
4657
5201
5650
5954
6042
5891
5533
4994
4264
3353
2361
1463
783
307
-59
-352
-515
-494
-339
-186
-128
-160
-239
-345
-470
-577
-636
-672
-750
-872
-945
-888
-739
-625
-617
-659
-686
-707
-771
-844
-826
-673
-490
-411
-451
-505
-490
-431
-388
-364
-333
-322
-379
-481
-519
-427
-274
-210
-288
-392
-374
-215
-40
29
-14
-88
-123
-105
-46
31
89
77
-17
-110
-99
30
172
216
158
99
119
198
260
264
241
234
253
289
339
399
446
461
461
485
558
649
687
639
561
561
685
879
1015
1012
904
809
835
987
1165
1523
1529
1455
1433
1545
1718
1798
1727
1628
1645
1758
1805
1688
1492
1394
1441
1509
1461
1330
1238
1249
1207
1127
1125
1218
1317
1333
1299
1311
1415
1232
1237
1174
1072
991
929
818
646
476
357
255
110
-60
-152
-134
-94
-157
-333
-512
-596
-601
-612
-689
-815
-921
-978
-992
-986
-991
-1029
-1050
-1090
-1154
-1169
-1124
-1037
-939
-874
-885
-971
-1082
-1101
-1064
-1026
-1066
-1202
-1335
-1350
-1237
-1100
-1067
-1090
-1016
-904
-842
-864
-920
-921
-825
-696
-646
-722
-831
-841
-736
-638
-653
-735
-757
-680
-597
-612
-686
-695
-598
-483
-453
-493
-509
-439
-326
-245
-239
-296
-390
-491
-553
-536
-455
-387
-381
-417
-424
-374
-302
-281
-331
-419
-486
-499
-465
-436
-457
-508
-516
-417
-247
-134
-158
-260
-314
-275
-229
-274
-380
-411
-299
-148
-115
-235
-356
-333
-190
-104
-186
-355
-441
-389
-302
-300
-368
-396
-314
-187
-126
-158
-208
-201
-145
-128
-202
-317
-380
-349
-289
-284
-345
-388
-343
-228
-274
-328
-260
-136
-61
-83
-170
-260
-290
-237
-129
-108
-166
-262
-345
-360
-273
-148
-90
-155
-141
-91
-148
-259
-280
-143
56
135
19
-173
-272
-214
-99
-59
-138
-250
-290
-223
-99
-2
15
-25
-44
5
77
55
-113
-322
-387
-264
-85
-26
-110
-190
-140
1
86
37
-83
-154
-123
-42
-5
-40
-95
-86
-3
89
105
46
-23
-47
-40
-41
-47
-32
-5
-22
-84
-125
-86
-5
27
-28
-93
-69
43
133
-12
-93
-55
149
102
-26
-106
-68
27
68
14
-61
-64
5
49
8
-71
-90
-15
88
129
80
-15
-88
-97
-55
-9
12
12
12
33
56
37
-20
-58
-36
21
43
19
2
31
65
39
-24
-35
52
161
181
101
17
8
52
70
40
13
33
79
100
87
71
86
130
176
196
175
113
33
-26
-29
26
96
147
172
180
183
203
254
318
352
336
298
304
348
351
265
142
88
137
214
235
198
165
-88
-72
-66
-77
-117
-166
-174
-121
-61
-56
169
187
203
221
242
221
134
16
-70
-96
-104
-119
-56
21
8
-89
-154
-105
-8
-13
-147
-275
-252
-120
-40
-97
-193
-176
-34
79
54
-62
-129
-88
5
76
128
246
500
900
1403
1968
2593
3302
4091
4890
5549
5956
6082
5972
5674
5186
4475
3556
2534
1567
793
246
-142
-456
-687
-760
-633
-385
-187
-151
-221
-283
-302
-345
-454
-563
-587
-538
-542
-659
-799
-814
-685
-552
-548
-651
-725
-680
-560
-457
-409
-395
-383
-371
-377
-410
-452
-485
-485
-440
-361
-293
-277
-300
-133
8
74
29
-25
50
242
365
280
77
-327
-332
-310
-283
-254
-218
-191
-200
-236
-228
-13
108
308
387
311
209
189
229
278
322
397
481
504
460
429
490
620
739
802
823
837
835
793
752
773
873
974
986
911
878
995
1216
1370
1343
1220
1190
1343
1558
1637
1522
1360
1331
1468
1643
1737
1729
1703
1720
1773
1826
1854
1862
1864
1870
1879
1868
1800
1686
1604
1633
1720
1727
1582
1372
1268
1299
1308
1158
905
717
-274
-244
-326
-521
-696
-754
-748
-795
-937
-1085
662
617
451
205
43
33
62
-14
-174
-281
-1130
-1064
-994
-1017
-1121
-1193
-1155
-1042
-973
-1032
-1167
-1256
-1215
-1070
-928
-865
-889
-971
-1060
-1091
-1016
-868
-765
-808
-947
-1017
-904
-689
-572
-658
-839
-922
-837
-696
-668
-792
-940
-963
-844
-687
-600
-579
-564
-521
-484
-489
-517
-528
-499
-458
-442
-467
-509
-521
-470
-376
-297
-284
-323
-357
-299
-153
-58
-115
-270
-370
-348
-284
-292
-365
-363
-369
-397
-419
-376
-267
-173
-183
-282
-353
-396
-326
-214
-165
-204
-282
-340
-367
-351
-281
-187
-143
-194
-289
-318
-251
-156
-117
-142
-188
-230
-272
-311
-318
-279
-239
-254
-320
-372
-342
-226
-105
-79
-164
-270
-276
-160
-34
-33
-176
-340
-390
-324
-242
-209
-203
-173
-127
-133
-210
-283
-262
-148
-55
-84
-211
-301
-251
-89
55
69
-43
-176
-211
-138
-40
-9
-65
-145
-176
-135
-65
-33
-81
-195
-309
-345
-296
-217
-168
-229
-124
-1
11
-85
-169
-138
-34
5
-79
-166
-179
-175
-147
-102
-44
0
-15
-108
-215
-214
-277
-241
-174
-133
-97
-31
39
43
-37
-111
-87
23
94
35
-120
-238
-230
-30
20
32
-7
-63
-101
-77
-13
8
-58
-145
-158
-79
9
19
-32
-62
-39
-5
11
35
64
61
8
-38
10
146
256
241
125
20
9
85
160
167
102
28
34
135
265
331
312
268
270
322
375
382
333
240
147
108
152
-1
23
-35
-133
-177
-136
-80
-98
-204
-330
242
278
215
111
63
86
110
65
-13
-40
-402
-393
-326
-232
-151
-109
-97
-72
-11
47
41
-50
-171
-236
-219
-172
-153
-168
-168
-118
-24
74
130
119
49
-50
-140
-180
-162
-94
27
221
509
896
1362
1900
2528
3266
4070
4818
5390
5744
5914
5919
5711
5219
4443
3486
2507
1624
878
252
-255
-608
-767
-743
-584
-360
-153
-44
-98
-295
-497
-567
-513
-493
-635
-873
-1004
-903
-677
-534
-570
-676
-686
-559
-404
-358
-447
-574
-622
-549
-419
-340
-369
-470
-542
-520
-411
-299
-262
-317
-408
-464
-453
-389
-324
-282
-252
-208
-133
-42
29
54
37
12
1
7
9
4
9
41
97
153
190
221
267
318
349
337
297
266
275
321
386
436
447
415
376
391
1381
1475
1531
1542
1523
1504
1537
1643
1769
1831
845
871
954
1066
1156
1191
1176
1158
1186
1272
490
626
708
698
651
663
758
864
903
874
1792
1693
1605
1571
1588
1633
1685
1718
1717
1690
1660
1635
1607
1576
1560
1540
1462
1299
1110
983
942
924
847
707
569
475
392
253
54
-129
-221
-235
-262
-379
-556
-687
-701
-658
-687
-835
-1004
-1057
-985
-918
-989
-1174
-1315
-1284
-1127
-999
-999
-1087
-1128
-1056
-934
-858
-881
-970
-1056
-1092
-1086
-1085
-1120
-1175
-1195
-1149
-1046
-927
-817
-728
-675
-675
-716
-753
-745
-695
-654
-674
-771
-885
-923
-826
-648
-528
-572
-723
-813
-733
-546
-436
-488
-607
-641
-542
-402
-350
-407
-486
-489
-416
-287
-171
-93
-113
-142
-101
-36
-64
-211
-371
-338
-316
-341
-370
-362
-337
-349
-403
-461
-465
-402
-331
-325
-387
-439
-414
-356
-364
-451
-505
-440
-334
-331
-446
-517
-414
-215
-119
-196
-305
-121
-205
-184
-99
-79
-169
-280
-314
-285
-281
-412
-327
-234
-245
-381
-511
-490
-307
-107
-42
-311
-312
-272
-265
-341
-423
-390
-246
-119
-108
-156
-143
-64
-24
-88
-186
-211
-163
-144
-202
-296
-341
-314
-240
-147
-51
8
-7
-76
-137
-141
-103
-68
-63
-70
-75
-72
-68
-51
-25
-19
-59
-120
-148
-124
-101
-130
-191
-217
-175
-110
-72
-51
-8
28
-3
-96
-144
-81
16
9
-101
-168
-88
61
102
5
-97
-83
3
28
-43
-110
-96
-24
6
-27
-56
-22
49
80
28
-67
-127
-104
-23
38
22
-50
-96
-57
39
91
53
-1
31
129
166
64
-81
-97
53
216
214
54
-99
-108
-5
72
55
-110
166
239
121
-43
-62
54
134
71
-36
11
17
72
94
20
-93
-126
-38
76
-38
-36
69
127
67
4
73
220
247
71
-152
-193
-30
145
153
29
-56
-3
108
156
139
136
181
214
180
112
102
179
271
296
264
256
322
412
432
367
302
325
415
480
454
367
289
248
217
176
134
115
125
138
121
69
29
57
137
181
116
-25
-108
-74
-16
-70
-229
-347
-306
-161
-65
-81
-138
-143
-93
-40
-20
-26
-51
-90
-139
-164
-144
-88
-34
4
19
19
14
1
-37
-114
-214
-262
-177
4194
4911
5555
5963
6130
6123
5926
5426
4593
3576
19
203
276
322
543
1071
1804
2511
3068
3578
2599
1776
1075
430
-128
-509
-663
-642
-536
-408
-302
-261
-312
-426
-518
-541
-552
-632
-782
-885
-848
-720
-653
-720
-827
-827
-710
-612
-640
-737
-742
-596
-414
-362
-469
-606
-638
-580
-539
-567
-588
-525
-400
-313
-314
-342
-304
-203
-127
-146
-24
65
60
-14
-50
6
99
129
76
28
-248
-359
-401
-338
-206
-81
-41
-91
-148
-127
88
227
315
265
161
158
286
407
389
288
1431
1554
1684
1706
1645
1618
1680
1787
1848
1833
892
900
880
867
920
1036
1122
1098
1013
994
1108
1256
1298
1235
1207
1322
1516
1614
1551
1439
274
421
610
668
581
492
518
642
771
853
1783
1744
1711
1672
1640
1624
1586
1457
1257
1109
1107
1196
1218
1081
860
699
648
608
486
292
126
58
45
-20
-185
-405
-575
-632
-627
-659
-763
-873
-913
-884
-859
-874
-881
-834
-777
-802
-1070
-901
-854
-991
-1175
-1216
-1062
-864
-804
-891
-946
-1133
-1254
-1258
-1164
-1056
-1025
-1089
-1182
-1193
-974
-939
-814
-733
-768
-846
-880
-873
-897
-959
-971
-874
-720
-618
-615
-656
-670
-634
-568
-502
-449
-451
-514
-602
-635
-585
-509
-507
-584
-638
-573
-424
-335
-391
-512
-546
-437
-294
-269
-387
-338
-348
-301
-233
-206
-246
-306
-336
-322
-302
-518
-531
-436
-341
-327
-368
-385
-355
-311
-307
-301
-309
-302
-288
-302
-354
-390
-345
-225
-130
-160
-285
-371
-326
-219
-188
-285
-416
-465
-409
-324
-272
-251
-244
-253
-288
-314
-299
-260
-259
-321
-410
-472
-499
-507
-495
-442
-360
-305
-310
-224
-108
-36
-55
-127
-180
-185
-179
-202
-234
-293
-359
-403
-389
-335
-279
-263
-291
-324
-309
-350
-356
-312
-258
-247
-277
-304
-292
-258
-251
-225
-186
-186
-258
-330
-312
-212
-140
-171
-248
-268
-211
-158
-167
-201
-183
-117
-68
-70
-91
-120
-191
-302
-357
-256
-63
24
-90
-269
-291
-109
83
98
-51
-187
-193
-121
-78
-101
-135
-136
-127
-147
-181
-167
-72
50
103
39
-77
187
54
-87
-94
8
96
84
12
-42
-23
85
35
3
26
32
-49
-153
-152
-2
166
-133
-50
121
248
233
84
-74
-116
-33
65
-19
-57
-78
-91
-83
-42
12
33
23
27
91
183
223
178
106
69
66
59
48
71
140
189
161
98
82
131
175
148
69
28
64
144
192
179
121
63
52
98
142
108
9
-88
-148
-97
16
78
51
0
9
73
-24
-173
-212
-113
35
103
67
15
21
44
126
142
158
195
228
228
212
234
294
335
463
448
463
491
438
265
86
36
129
237
291
196
145
179
246
274
269
297
377
448
235
161
132
187
237
188
73
1
8
9
-78
-214
-271
-189
-63
-23
-97
-190
-215
-191
-180
-193
-191
-163
-139
-133
-115
-78
-67
-133
-221
-220
-101
34
68
14
-36
-38
-46
-103
-153
-115
-21
27
18
86
370
861
1404
1925
2492
3209
4025
4757
5293
5693
6074
6391
6426
6010
5221
4300
3417
2562
1680
810
100
-330
-492
-502
-493
-516
-529
-473
-365
-306
-387
-575
-740
-783
-736
-707
-725
-724
-662
-588
-598
-691
-773
-758
-678
-636
-679
-753
-768
-702
-616
-587
-615
-636
-595
-522
-481
-493
-514
-482
-390
-302
-285
-329
-373
-365
-320
-279
-251
-212
-175
-172
-213
-248
-222
-154
-126
-168
-210
-151
5
138
149
60
-7
18
96
142
144
165
251
371
452
457
432
445
507
564
574
549
525
520
526
544
595
700
818
889
888
861
879
964
1069
1127
1509
1541
1540
1527
1533
1585
1680
1770
1805
1784
1121
1106
1140
1229
1321
1367
1367
1365
1395
1451
1749
1738
1758
1793
1823
1825
1778
1677
1554
1474
1477
1521
1521
1425
1263
1114
1036
1010
953
806
589
380
252
206
173
82
-80
-264
-405
-477
-512
-556
-638
-748
-863
-958
-1017
-1033
-1030
-1025
-1241
-1266
-1189
-1123
-1144
-1199
-1179
-1070
-970
-963
-1027
-1026
-1030
-1063
-1123
-1156
-1116
-1045
-1033
-1123
-1024
-1051
-1016
-981
-1004
-1037
-997
-885
-819
-870
-980
-1006
-901
-766
-725
-777
-833
-838
-815
-785
-723
-612
-510
-503
-582
-640
-607
-543
-571
-698
-799
-769
-644
-533
-491
-490
-492
-500
-521
-502
-427
-386
-488
-697
-819
-715
-490
-360
-391
-442
-386
-302
-343
-479
-505
-342
-181
-259
-517
-673
-550
-286
-138
-191
-319
-385
-383
-366
-356
-347
-352
-388
-412
-379
-314
-283
-305
-314
-271
-223
-239
-294
-303
-233
-160
-176
-272
-346
-332
-269
-240
-288
-356
-386
-370
-358
-376
-405
-391
-325
-254
-244
-311
-380
-367
-276
-202
-210
-248
-209
-88
-14
-98
-281
-383
-294
-132
-88
-200
-315
-377
-369
-197
-25
14
-71
-181
-229
-211
-167
-269
-93
32
-14
-152
-201
-97
20
-14
-205
-150
-176
-239
-295
-293
-229
-144
-78
-40
-11
8
-4
-65
-135
-154
-120
-81
-78
-84
-63
-36
-63
-154
-227
-202
-121
-90
-140
-188
-153
-72
-34
-38
1
104
178
117
-25
-108
-62
-66
-73
-6
24
-20
-75
-57
30
94
63
-31
-102
-87
-21
15
-24
-100
-136
-97
-25
16
19
17
31
18
-41
-89
-42
89
183
82
109
20
-47
2
109
146
63
-64
-131
116
-71
-202
-144
34
134
50
-118
-174
-64
-105
-38
16
46
72
102
118
119
122
128
106
38
-56
-115
-117
-90
-84
-99
-90
-15
115
231
253
155
8
-59
17
140
147
-13
-179
-168
12
158
124
-6
-42
74
194
174
60
7
80
178
191
141
134
221
316
326
256
214
269
379
455
466
452
453
456
437
418
442
490
477
368
228
156
154
148
91
-89
-86
-46
-24
-70
-161
-209
-159
-59
-3
1
-152
-248
-274
-281
-280
-237
-151
-80
-68
50
103
224
291
220
81
12
63
145
130
-35
-108
-133
-75
16
57
7
-92
-165
-176
-153
-149
-174
-176
-102
57
261
499
825
1319
1988
2757
3541
4309
5073
5803
6403
6781
6917
6817
6437
5711
4669
3498
2434
1578
843
125
-506
-854
-827
-590
-425
-453
-547
-516
-361
-261
-351
-572
-742
-763
-697
-655
-671
-697
-700
-693
-714
-769
-826
-833
-769
-680
-633
-642
-640
-563
-454
-443
-586
-771
-809
-646
-440
-396
-529
-646
-565
-327
-159
-201
-362
-413
-281
-118
-108
-241
-332
-255
-93
-22
-81
-145
-110
-8
57
64
84
148
201
169
85
43
89
173
230
263
315
383
399
335
267
306
467
640
693
621
535
554
677
808
868
858
825
810
836
901
998
1094
1160
1205
1246
1278
1274
1245
1257
1348
1462
1487
1416
1397
1551
1802
1929
1826
1643
1617
1774
1921
1622
1472
1373
1359
1344
1218
1002
827
779
769
637
360
111
59
168
226
91
-162
-370
-454
1887
1732
1650
1721
1827
1838
1761
1704
1713
1714
-484
-570
-725
-876
-963
-984
-1007
-1087
-1195
-1240
-1175
-1065
-1046
-1177
-1372
-1481
-1452
-1358
-1305
-1326
-1364
-1361
-1292
-1185
-1085
-1051
-1112
-1216
-1252
-1172
-947
-834
-842
-956
-1039
-996
-874
-781
-759
-757
-1064
-1070
-1212
-1348
-1322
-1135
-957
-935
-1015
-1039
-719
-647
-592
-588
-623
-666
-698
-722
-747
-791
-831
-822
-735
-619
-556
-582
-648
-674
-646
-623
-640
-663
-635
-560
-504
-517
-557
-529
-414
-306
-320
-451
-573
-588
-527
-477
-476
-475
-421
-336
-284
-295
-326
-340
-344
-393
-484
-555
-556
-501
-452
-448
-472
-466
-423
-389
-387
-385
-357
-330
-367
-466
-526
-458
-299
-195
-252
-420
-549
-529
-404
-314
-356
-485
-560
-502
-361
-256
-245
-289
-303
-273
-244
-247
-293
-372
-469
-539
-518
-396
-276
-277
-396
-491
-444
-279
-141
-138
-230
-305
-306
-266
-241
-231
-211
-197
-230
-302
-330
-272
-177
-152
-219
-276
-205
-30
99
62
-106
-255
-279
-208
-155
-179
-230
-232
-189
-173
-274
-249
2
75
15
-124
-232
-270
-256
-207
-125
-50
-51
-136
-222
-205
-93
-11
-57
-185
-270
-248
-166
-247
-402
-432
-278
-69
16
-58
-150
-123
-161
-93
-79
-93
-108
-129
-169
-220
-240
-202
-132
-96
-130
-194
-194
-95
23
45
-49
-164
-188
-102
9
57
27
-39
-98
-130
-120
-57
20
41
-42
-176
-241
-166
-8
83
39
-45
-48
18
32
-60
-157
-139
-29
30
-33
-147
-198
-176
-136
-102
-43
33
60
10
-46
-32
35
63
19
-42
-60
-52
-67
-87
-53
45
122
99
18
-8
60
137
109
-12
-107
-98
-24
13
-13
-39
-6
50
78
68
65
94
126
115
60
-7
-74
-131
-142
-79
31
90
29
-100
-152
-33
183
324
295
179
138
215
316
323
229
138
140
212
259
225
170
186
293
405
454
447
442
455
424
305
162
103
151
220
228
198
212
267
283
227
184
228
285
200
-63
-331
-397
-257
-104
-118
-259
-341
-255
-87
-6
-71
-187
-227
-179
-147
-209
-330
-401
-358
-261
-200
-206
-205
-135
-27
26
-8
-68
-82
-59
-62
-110
-146
-109
-3
151
377
6318
6443
6279
5719
4831
3799
2772
1819
954
219
721
1182
1707
2268
2920
3704
4536
5244
5737
6069
-328
-641
-742
-700
-590
-462
-342
-235
-172
-191
-320
-529
-755
-927
-987
-932
-812
-719
-734
-842
-933
-889
-717
-560
-559
-707
-847
-825
-664
-523
-515
-589
-615
-547
-478
-491
-549
-545
-453
-354
-339
-404
-451
-413
-330
-288
-314
-341
-297
-187
-86
-56
-70
-88
-102
-130
-166
-160
-98
-37
-50
-125
-157
-62
111
230
219
157
167
286
391
350
187
81
174
412
592
590
492
460
558
695
760
743
715
726
758
779
805
859
945
1021
1065
1097
1135
1173
1197
1218
1244
1270
1274
1282
1346
1479
1591
1588
1487
1423
1500
1670
1778
1663
1615
1661
1707
1624
1406
1167
1027
991
955
822
602
389
271
245
216
111
-58
-220
1797
1810
1768
1743
1739
1718
1698
1728
1807
1844
-345
-455
-574
-670
-690
-655
-662
-782
-958
-1064
-1043
-992
-1034
-1188
-1337
-1381
-1341
-1310
-1315
-1301
-1223
-1135
-1111
-1166
-1228
-1218
-1138
-1054
-1035
-1093
-1175
-1210
-1179
-1132
-1130
-1159
-1147
-1064
-984
-996
-1091
-1164
-1133
-1035
-965
-966
-986
-958
-873
-783
-738
-750
-784
-790
-736
-655
-604
-609
-645
-669
-671
-664
-648
-601
-534
-508
-569
-663
-700
-633
-525
-460
-449
-445
-426
-440
-502
-544
-499
-397
-348
-413
-514
-524
-420
-306
-285
-354
-431
-446
-408
-374
-382
-423
-461
-459
-426
-399
-412
-447
-453
-405
-343
-317
-334
-348
-339
-340
-395
-479
-509
-442
-322
-253
-275
-318
-294
-216
-164
-200
-296
-380
-419
-433
-441
-417
-347
-271
-253
-296
-142
-232
-252
-264
-261
-227
-162
-109
-110
-160
-329
-275
-157
-74
-113
-257
-397
-428
-215
-136
-208
-210
-170
-139
-141
-159
-172
-173
-171
-162
-142
-118
-115
-131
-135
-98
-55
-70
-153
-226
-207
-104
-15
-13
-73
-120
-104
-54
-36
-79
-153
-209
-205
-161
-136
-155
-172
-126
-27
47
55
43
69
111
107
55
31
100
183
155
18
-91
-65
35
63
-21
-93
-36
97
143
79
86
94
96
65
14
-4
44
128
193
43
-79
-66
51
102
5
-132
-142
-13
95
69
-17
-10
124
255
262
164
71
47
63
204
185
177
194
226
245
228
190
170
188
230
255
229
177
150
174
224
254
248
218
157
63
-18
-11
98
215
223
122
48
120
297
424
403
304
282
383
494
476
332
217
260
412
526
534
509
550
633
658
593
531
547
575
508
355
244
250
297
280
222
242
39
49
57
85
141
162
78
-61
-123
-62
358
440
364
187
84
124
207
207
123
51
325
375
398
487
748
1198
1782
2451
3194
3989
37
64
24
20
84
152
171
183
239
299
281
197
156
237
367
411
324
200
160
229
4745
5344
5746
6008
6150
6075
5653
4884
3952
3054
2238
1466
744
151
-249
-463
-523
-437
-235
-25
-367
-413
-418
-326
-184
-102
-124
-192
-215
-194
61
9
-67
-75
-49
-90
-224
-350
-385
-364
-198
-267
-337
-308
-171
-56
-85
-205
-242
-92
145
267
205
88
64
125
151
101
57
99
202
268
275
295
375
467
504
470
424
417
443
460
451
426
417
447
516
605
692
761
794
776
716
687
758
910
1023
982
808
669
705
895
1076
1126
1069
1018
1043
1113
1184
1251
1324
1386
1403
1375
1377
1462
1599
1704
1741
1755
1817
1926
2001
2000
1958
1947
1975
1999
1987
1993
2076
2209
2290
2260
2189
2204
2320
2404
2347
2194
2096
2119
2181
2152
2025
1914
1901
1946
1954
1882
1765
1622
1468
1323
1231
1200
1158
1013
751
477
311
272
261
172
-17
-207
-297
-274
-238
-295
-447
-584
-605
-547
-543
-671
-844
-905
-803
-674
-629
-680
-817
-878
-791
-633
-546
-587
-681
-714
-662
-587
-555
-557
-539
-478
-400
-344
-309
-280
-671
-790
-874
-817
-693
-663
-772
-890
-867
-725
-246
-224
-212
-199
-181
-182
-223
-300
-382
-431
-423
-364
-281
-201
-137
-69
12
93
140
147
125
92
43
-9
-38
-29
1
17
-2
-38
-48
-2
86
139
99
-5
-54
33
198
291
248
156
144
205
212
97
-37
-31
121
236
164
-11
-80
46
225
265
161
92
165
285
293
195
153
261
412
419
264
101
71
135
241
261
207
150
150
202
247
251
242
271
167
114
61
105
218
288
249
152
110
162
333
362
303
180
78
91
220
364
310
158
87
300
366
298
171
100
151
288
419
478
447
354
264
251
337
470
530
454
299
211
276
434
531
484
348
249
240
268
266
253
296
400
485
463
352
267
288
377
429
386
301
260
298
379
448
490
508
503
469
420
364
311
279
291
335
351
309
256
267
339
383
340
271
288
399
479
438
309
215
225
296
345
349
338
329
323
328
372
463
559
589
531
418
338
331
367
369
321
288
318
386
413
370
315
326
388
401
319
226
236
479
597
512
357
369
591
803
783
553
352
339
404
363
292
318
423
455
344
232
287
342
468
562
546
492
500
586
679
706
677
669
729
811
810
672
473
371
417
509
491
365
281
352
483
496
346
195
211
365
483
451
333
252
256
291
306
294
261
200
124
68
52
57
53
42
55
113
197
269
296
271
219
196
219
253
229
150
99
141
245
317
289
202
163
234
384
533
655
813
1127
6293
5846
5056
3994
2885
1948
1251
716
256
-128
1661
2374
3154
3917
4645
5325
5894
6276
6455
6463
-366
-418
-314
-140
7
58
-5
-136
-257
-321
-351
-383
-426
-439
-403
-345
-310
-303
-319
-371
-197
-293
-364
-315
-193
-117
-134
-169
-143
-68
-11
-3
-23
-28
-16
-11
-26
-44
-36
25
-470
-573
-601
-533
-448
-442
-487
-474
-346
-212
106
149
112
28
-20
32
154
254
295
311
358
405
406
367
370
436
496
467
388
373
456
556
590
589
630
714
760
741
714
746
796
796
771
813
942
1054
1066
1034
1072
1215
1352
1357
1260
1199
1279
1439
1534
1493
1409
1422
1577
1754
1800
1700
1589
1603
1737
1859
1865
1798
1782
1859
1944
1930
1825
1757
1810
1921
1943
1819
1635
1520
1507
1498
1392
1209
1043
964
950
891
736
531
380
340
364
339
195
-44
-271
-395
-416
-404
-435
-534
-666
-772
-819
-823
-831
-885
-984
-1064
-1062
-987
-924
-954
-1045
-1096
-1054
-978
-907
-968
-1005
-996
-948
-882
-819
-798
-843
-907
-948
-974
-1002
-1005
-1010
-1039
-1056
-1015
-934
-884
-914
-837
-745
-708
-711
-682
-596
-506
-464
-472
-364
-316
-343
-336
-255
-186
-239
-380
-466
-414
-500
-529
-552
-564
-557
-566
-609
-655
-624
-499
-304
-268
-323
-372
-350
-298
-278
-273
-233
-170
-151
-199
-253
-268
-274
-308
-337
-296
-199
-145
-170
-194
-111
32
84
-32
-204
-263
-176
-84
-120
-258
-370
-367
-274
-166
-100
-106
-188
-289
-92
-88
-139
-208
-231
-194
-138
-101
-73
-25
-319
-241
-135
-123
-228
-324
-284
-145
-61
-119
-242
-295
-235
-142
-106
-142
-198
-222
-200
-145
16
-22
-152
-268
-256
-129
-21
-28
-93
-89
18
120
111
24
-25
-12
-29
-131
-256
-173
-123
-206
-124
52
151
74
-87
-177
-154
-106
-116
-156
-151
-100
-81
-122
-159
-119
-28
18
145
36
-82
-101
-31
32
39
32
73
139
-21
-66
-15
124
225
182
52
-19
40
137
145
58
-45
-57
37
141
145
36
-95
-137
-50
100
178
107
-52
-147
-93
41
113
65
-19
-31
35
93
76
4
-46
-28
49
124
141
101
59
74
140
176
131
52
36
107
179
159
48
-55
-63
16
103
146
149
145
151
173
203
233
241
194
102
16
-6
37
71
28
-53
-71
25
175
271
256
167
87
62
85
127
165
160
93
-8
-71
-54
15
50
21
-11
49
201
341
350
233
115
118
240
347
317
154
-18
-67
28
169
255
266
261
293
335
327
278
264
322
406
424
360
294
322
432
523
518
452
408
413
403
315
192
141
188
238
178
37
-21
86
251
283
142
-21
-38
77
162
100
-68
-191
-189
-107
-38
-32
-66
-105
-151
-210
-258
-233
-126
-14
-9
-124
-232
-194
-11
154
152
6
-112
-70
77
155
80
-68
-144
-103
-21
23
40
104
259
509
849
1309
1903
2598
3336
4073
4776
5410
5914
6240
6353
6219
5798
5090
4179
3206
2286
1465
739
113
-375
-670
-745
-646
-490
-387
-380
-419
-413
-333
-259
-303
-500
-741
-871
-822
-689
-610
-655
-772
-866
-879
-821
-730
-659
-640
-662
-672
-622
-544
-520
-566
-607
-561
-472
-439
-495
-551
-508
-389
-299
-291
-318
-299
-221
-145
-135
-193
-257
-260
-191
-113
-107
-176
-240
-197
-47
113
168
105
18
10
98
204
228
156
69
80
202
350
413
379
324
333
418
507
540
521
501
527
584
618
594
548
564
685
862
995
1021
989
994
1078
1178
1217
1187
1158
1185
1241
1824
1830
1795
1794
1842
1871
1821
1721
1663
1690
1273
1285
1334
1460
1616
1712
1709
1669
1682
1757
1745
1747
1682
1610
1566
1534
1478
1418
1367
1309
1201
1058
920
814
721
617
511
411
298
147
-16
-154
-274
-428
-626
-791
-822
-741
-688
-771
-947
-1064
-1039
-941
-906
-993
-1129
-1198
-1175
-1125
-1112
-1119
-1103
-1069
-1061
-1099
-1126
-1095
-1036
-1012
-1043
-1087
-1106
-1125
-1161
-1173
-1106
-1006
-985
-1080
-1158
-1067
-845
-707
-802
-1007
-1057
-857
-602
-538
-689
-852
-849
-711
-606
-611
-663
-670
-626
-591
-599
-648
-699
-731
-722
-666
-588
-525
-479
-436
-604
-466
-387
-391
-414
-386
-321
-295
-348
-441
-386
-363
-388
-423
-416
-377
-387
-493
-634
-685
-490
-440
-332
-269
-314
-424
-468
-383
-239
-181
-252
-350
-350
-264
-208
-253
-332
-352
-310
-294
-356
-447
-495
-487
-455
-406
-324
-223
-161
-183
-207
-160
-183
-207
-194
-185
-217
-260
-197
-173
-271
-349
-367
-324
-274
-285
-363
-443
-438
-329
-225
-330
-268
-186
-168
-246
-361
-425
-382
-251
-110
-25
-20
-75
-138
-179
-189
-158
-105
-78
-118
-229
-335
-329
-195
-39
6
-92
-227
-274
-216
-138
-114
-132
-122
-73
-43
-72
-120
-122
-75
-38
-71
-138
-140
-46
63
86
17
-50
-28
43
65
-13
-139
-218
-208
-144
-86
-76
-116
-158
-135
-53
13
0
-76
-121
-80
-18
-15
-55
-57
-11
-5
-100
-212
-207
-90
8
-25
-132
-170
-79
46
90
41
-33
-83
-107
-109
-91
-80
-133
-184
-142
-43
-22
-125
-205
-111
-99
-72
-50
-27
23
95
125
63
-49
-99
127
237
108
-119
-216
-123
27
96
75
22
-33
-85
-106
-60
17
33
-38
-103
-66
46
117
90
27
19
65
78
9
-91
-120
-49
49
78
17
-61
-57
49
180
237
190
96
34
32
86
179
290
364
341
239
189
295
492
607
545
384
265
233
224
200
184
202
205
149
75
51
82
106
98
101
136
151
92
-15
-74
-59
-47
-93
-150
-149
-105
-105
-176
-227
-177
-76
-60
-181
-319
-307
-147
-25
-90
-264
-343
-218
-27
22
-107
-239
-202
-37
66
6
-129
-181
-119
-34
9
85
313
6001
5978
5660
5053
4234
3311
2384
1530
789
160
703
1165
1647
2194
2879
3671
4429
5034
5476
5803
-317
-508
-662
-714
-696
-660
-628
-609
-633
-709
-347
-689
-820
-769
-647
-542
-459
-356
-243
-210
-782
-779
-695
-617
-613
-659
-678
-640
-587
-548
-506
-454
-443
-501
-564
-534
-411
-319
-345
-438
-466
-375
-254
-221
-287
-368
-376
-283
-138
-23
-3
-79
-185
-235
-197
-124
-92
-122
-151
-112
14
159
240
228
181
183
243
298
282
203
121
82
89
124
187
278
366
422
448
490
586
713
801
813
775
748
781
857
925
943
923
915
979
1109
1245
1305
1284
1259
1316
1436
1528
1531
1487
1490
1550
1596
1559
1487
1496
1628
1783
1842
1776
1678
1651
1715
1804
1832
1765
1654
1587
1607
1671
1664
1526
1322
1192
1172
1156
1008
744
518
450
479
447
293
107
-8
-65
-157
-319
-478
-565
-597
-655
-764
-868
-903
-901
-929
-1003
-1067
-1058
-1002
-999
-1099
-1234
-1278
-1193
-1099
-1052
-1108
-1079
-1020
-1068
-1222
-1295
-1145
-886
-769
-1125
-1253
-1335
-1300
-1217
-1195
-1211
-1172
-1069
-1009
-887
-1073
-1102
-947
-766
-708
-777
-868
-878
-805
-673
-562
-575
-638
-607
-469
-373
-430
-550
-557
-724
-703
-743
-768
-715
-626
-612
-713
-824
-810
-431
-341
-418
-574
-604
-440
-240
-199
-331
-469
-471
-370
-319
-404
-544
-594
-486
-312
-231
-296
-401
-403
-285
-190
-243
-396
-491
-440
-324
-264
-283
-304
-288
-278
-306
-328
-291
-233
-250
-342
-398
-329
-206
-160
-201
-206
-120
-58
-153
-352
-187
-211
-335
-435
-445
-356
-236
-174
-201
-253
-459
-378
-229
-190
-275
-354
-336
-279
-276
-255
-238
-151
-96
-153
-259
-274
-159
-46
-71
-214
-311
-254
-102
0
-21
-108
-172
-175
-143
-128
-144
-170
-151
-66
24
29
-75
-188
-181
-50
-173
-16
40
-61
-201
-224
-100
38
50
-55
51
-10
-204
-342
-291
-122
-22
-87
-229
-279
-145
-122
-39
-7
-35
-59
-50
-55
-102
-124
-209
-55
43
-4
-93
-60
109
246
195
-11
-49
64
75
-45
-163
-155
-64
-45
-151
-253
-173
-144
24
142
87
-84
-209
-192
-78
17
41
24
10
4
-30
-84
-113
-86
-36
-5
-4
-7
2
1
-15
-12
33
89
99
51
-9
-37
-28
-17
-6
17
58
87
88
66
27
121
88
-15
-61
-4
86
116
75
21
31
-19
-71
-84
-32
30
18
-74
-150
-106
-8
-19
-37
-56
-52
-36
-35
-54
-67
-52
-24
-36
-99
-162
-153
-63
34
66
50
70
179
316
343
214
48
10
113
214
188
81
30
72
132
143
142
206
300
316
223
114
396
393
344
261
186
145
136
129
90
19
103
181
266
298
296
302
321
334
347
372
-40
-36
32
119
154
97
-32
-167
-238
-218
-154
-130
-195
-296
-326
-237
-98
-22
-30
-53
-26
11
-28
-151
-256
-262
-200
-165
-205
-272
-286
-233
-157
-98
-66
-57
-57
-53
-57
-94
-163
-204
-143
29
256
519
898
1475
2214
2979
3676
4353
5087
5809
6318
6448
6230
5822
5324
4671
3761
2636
1527
681
148
-216
-549
-816
-865
-644
-933
-839
-703
-618
-612
-640
-633
-583
-541
-550
-781
-762
-839
-927
-902
-765
-647
-658
-784
-912
-325
-150
-187
-290
-325
-320
-404
-604
-791
-838
-596
-613
-567
-484
-421
-411
-444
-475
-463
-397
-324
-293
-306
-309
-256
-193
-200
-282
-337
-279
-147
-72
-101
-133
-63
87
186
164
100
100
164
191
137
64
63
121
157
158
189
291
389
381
296
289
440
634
682
561
464
545
731
819
750
693
820
1060
1181
1080
923
939
1136
1304
1283
1153
1110
1205
1311
1314
1276
1333
1496
1631
1647
1613
1639
1723
1760
1701
1624
1607
1638
1650
1619
1571
1533
1497
1479
1509
1567
1575
1476
1300
1143
1040
951
843
737
658
583
482
364
274
206
90
-97
-277
-366
-393
-488
-701
-1183
-1133
-1097
-1132
-1207
-1230
-1168
-1083
-1048
-1080
-922
-989
-901
-808
-834
-956
-1065
-1120
-1152
-1186
-1149
-1217
-1258
-1236
-1155
-1079
-1084
-1137
-1134
-1024
-886
-825
-847
-875
-870
-875
-933
-994
-991
-921
-860
-874
-943
-997
-983
-887
-738
-627
-640
-765
-870
-813
-614
-449
-457
-575
-621
-517
-396
-403
-517
-574
-493
-381
-397
-532
-623
-555
-396
-320
-407
-550
-578
-448
-290
-273
-424
-592
-596
-426
-245
-210
-304
-386
-348
-242
-188
-227
-351
-352
-334
-314
-324
-337
-340
-309
-253
-219
-253
-345
-431
-445
-373
-266
-191
-179
-202
-221
-204
-162
-132
-140
-177
-221
-248
-256
-271
-309
-337
-320
-258
-208
-219
-276
-316
-309
-290
-298
-320
-303
-236
-179
-135
-148
-177
-178
-163
-164
-163
-121
-239
-182
-198
-265
-292
-218
-108
-78
-149
-231
-55
-52
-157
-290
-310
-181
-19
21
-101
-273
-348
-271
-131
-48
-61
-107
-114
-80
-59
-68
-57
14
102
110
2
-151
-218
-150
-22
30
-39
-155
-197
-136
-63
-80
-170
-204
-110
25
64
-14
-95
-75
7
48
-5
-99
-170
-199
-192
-151
-75
-3
11
-31
-67
-54
0
46
62
51
14
-53
-108
-93
-12
29
-54
-206
-268
-150
42
125
65
9
74
202
236
139
21
4
42
12
-112
-220
-196
-66
49
63
14
-12
23
81
109
78
5
-64
-89
-53
22
75
51
-35
-108
-95
-6
92
130
83
-15
-103
-129
-69
43
132
124
42
-30
-16
63
108
55
-57
-114
-52
77
141
60
-107
-196
-98
119
262
209
41
-53
11
137
186
134
75
63
53
-2
-53
-9
108
155
58
-70
-67
63
136
27
-160
-214
-69
121
189
146
121
180
260
281
259
263
301
320
291
251
259
330
430
517
565
549
457
322
220
199
221
195
82
-56
-119
-89
-34
-17
-25
-7
29
25
-33
-81
-73
-53
-87
-163
-193
-133
-56
-65
-158
-223
-184
-91
-67
-164
-284
-289
-164
-52
-106
-294
-419
-330
-102
40
-18
-158
-174
-38
90
70
-56
-133
-96
-18
24
81
273
666
1208
1828
2531
3345
4217
5002
5584
5977
6263
6442
6375
5910
5044
3963
2915
2040
1319
663
35
-497
-815
-864
-711
-500
-355
-304
-302
-322
-386
-502
-631
-721
-760
-802
-898
-1012
-1060
-993
-858
-756
-741
-779
-785
-698
-542
-401
-356
-540
-418
-350
-333
-337
-352
-373
-384
-359
-304
-426
-569
-699
-754
-739
-704
-705
-735
-740
-669
-253
-228
-216
-183
-116
-59
-68
-140
-206
-209
-159
-109
-91
-79
-35
50
138
185
187
179
212
296
376
381
322
300
379
486
512
462
469
593
698
620
437
412
661
969
1017
780
565
621
873
1034
975
857
897
1091
1239
1222
1136
1174
1375
1578
1617
1503
1405
1460
1633
1766
1777
1720
1713
1788
1868
1865
1789
1719
1714
1755
1033
854
723
696
700
613
417
233
168
178
1787
1775
1738
1691
1622
1516
1391
1290
1235
1169
96
-165
-486
-662
-643
-588
-663
-871
-1039
-1028
-883
-791
-882
-1097
-1250
-1221
-1084
-1028
-1151
-1350
-1426
-1307
-1144
-1121
-1249
-1363
-1329
-1201
-1124
-1132
-1136
-1065
-985
-1001
-1088
-1125
-1064
-987
-990
-1056
-693
-779
-773
-670
-548
-488
-493
-523
-545
-572
-848
-814
-813
-802
-727
-601
-526
-571
-752
-729
-1082
-1034
-988
-1030
-1125
-1170
-1122
-1033
-956
-899
-590
-560
-483
-427
-450
-532
-575
-502
-349
-250
-307
-478
-606
-583
-459
-391
-462
-588
-608
-454
-224
-90
-137
-283
-380
-353
-268
-258
-377
-551
-639
-573
-429
-335
-326
-349
-332
-268
-201
-183
-220
-304
-402
-458
-436
-355
-279
-268
-318
-382
-417
-407
-351
-249
-158
-166
-293
-437
-444
-284
-128
-157
-363
-542
-518
-349
-241
-308
-447
-463
-312
-152
-137
-252
-350
-333
-248
-206
-241
-281
-249
-178
-166
-245
-348
-380
-323
-242
-209
-238
-299
-317
-250
-117
-1
6
-104
-225
-255
-218
-209
-268
-313
-269
-171
-123
-152
-177
-126
-66
-97
-197
-243
-179
-115
-180
-348
-441
-332
-110
-167
-194
-209
-169
-95
-44
-31
-35
-36
-46
-88
-163
-230
-241
-190
-116
-56
-15
33
90
13
-32
-127
-134
-51
10
-27
-111
-162
-164
114
62
-57
-164
-190
-154
-127
-149
-194
-198
-129
-29
30
18
-25
-45
-35
-42
-108
-199
-231
-156
-32
27
-9
-76
-88
-35
18
12
-43
-94
-99
-70
-50
-52
-64
-60
-26
40
128
192
179
83
-33
-72
-17
48
20
-87
-153
-99
28
106
83
19
4
60
145
186
151
57
-21
-4
106
222
251
206
190
249
180
180
34
-106
-107
-7
44
-2
-39
32
313
294
215
189
256
313
244
82
-9
61
161
202
113
-14
-70
-63
-77
-156
-247
-278
-254
-229
-234
-243
-213
-145
-79
-70
-139
-257
-349
-357
-285
-202
-184
-236
-283
-235
-86
76
147
95
-5
-50
-18
19
-4
-73
-116
-75
82
378
855
1503
2224
2893
3490
4099
4765
5384
-111
-598
-788
-724
-609
-582
-576
-459
-242
-94
5771
5843
5651
5248
4620
3766
2813
1939
1202
531
-154
-381
-607
-702
-656
-567
-539
-607
-703
-744
-708
-655
-653
-706
-752
-743
-698
-644
-587
-511
-411
-333
-324
-376
-436
-444
-405
-369
-381
-426
-437
-387
-317
-295
-320
-334
-294
-232
-208
-229
-237
-199
-135
-99
-95
-93
-56
14
88
136
419
572
576
447
341
386
537
623
549
403
142
111
71
73
135
216
248
207
174
245
344
416
539
619
658
725
839
931
935
878
1647
1612
1571
1597
1683
1759
1769
1715
1640
1589
1596
1678
1809
1907
1895
1780
1661
1642
1730
1828
866
965
1129
1235
1215
1126
1095
1201
1405
1583
1831
1706
1524
1379
1331
1363
1395
1343
1183
965
768
639
567
508
413
265
119
39
32
12
-121
-363
-583
-657
-617
-624
-766
-976
-1115
-1126
-1063
-1021
-1036
-1088
-1153
-1215
-1262
-1285
-1277
-1267
-1276
-1303
-1330
-1330
-1302
-1272
-1274
-1301
-1300
-1234
-1142
-1105
-1150
-1215
-1205
-1113
-1022
-994
-1011
-1013
-967
-912
-891
-904
-920
-922
-902
-870
-827
-800
-822
-866
-871
-806
-713
-663
-666
-668
-608
-606
-545
-490
-423
-418
-493
-583
-590
-493
-381
-345
-614
-530
-491
-518
-574
-594
-557
-512
-507
-540
-373
-380
-316
-248
-268
-361
-435
-431
-396
-413
-484
-521
-465
-356
-294
-314
-357
-345
-272
-213
-239
-335
-408
-393
-326
-301
-357
-446
-487
-471
-197
-177
-264
-371
-395
-304
-168
-98
-147
-253
-453
-461
-459
-400
-314
-282
-337
-414
-412
-308
-308
-256
-167
-168
-281
-398
-408
-338
-303
-349
-228
-302
-322
-320
-307
-276
-246
-241
-256
-263
-393
-349
-253
-213
-247
-266
-191
-75
-39
-113
-243
-227
-248
-269
-233
-149
-105
-163
-261
-278
-165
-25
-2
-125
-277
-330
-268
-166
-108
-113
-142
-134
-65
26
57
-15
-140
-203
-168
-118
-157
-272
-342
-283
-153
-84
-129
-201
-177
-53
-17
158
209
91
-56
-69
36
83
-43
-241
-298
-137
91
176
80
-38
-18
110
184
116
41
-19
-202
-348
-307
-116
45
38
-80
-132
-20
-83
-30
71
132
126
99
117
203
324
420
449
440
437
430
366
236
115
106
190
228
127
-32
-74
56
230
269
140
-29
-108
-126
-163
-174
-176
-189
-225
-273
-307
-289
-212
-90
-65
-92
-132
-123
-45
42
66
18
-61
-104
-25
-14
-61
-102
-91
-35
13
11
-20
-29
21
87
109
55
-32
-81
-51
42
177
365
659
1079
1582
2117
2677
3309
4013
4709
5286
5669
5832
5771
5487
5010
4355
3531
2587
1657
904
369
-50
-434
-719
-762
-554
-300
-213
-306
-408
-404
-349
-377
-533
-713
-796
-755
-668
-609
-610
-642
-656
-615
-535
-475
-496
-594
-694
-704
-607
-476
-423
-488
-603
-663
-612
-488
-373
-317
-315
-331
-338
-334
-319
-296
-281
-297
-331
-340
-293
-202
-128
-125
-184
-236
-223
-142
-42
31
61
45
192
357
461
483
469
466
500
566
632
63
54
63
104
173
240
249
175
61
-2
875
889
857
915
1093
1259
1282
1207
1195
1302
652
607
530
490
515
562
578
580
637
764
1409
1399
1312
1300
1400
1480
1432
1345
1383
1562
1692
1622
1433
1360
1498
1712
1809
1755
1670
1637
1617
1531
1397
1294
1252
1204
1086
923
807
784
803
774
643
450
276
166
84
-33
-190
-336
-432
-489
-537
-573
-587
-610
-713
-890
-1030
-1028
-921
-872
-987
-1189
-1293
-1225
-1081
-1015
-1075
-1174
-1209
-1165
-1089
-1033
-1010
-1021
-1054
-1085
-1077
-1022
-983
-1021
-1121
-1177
-1125
-1008
-936
-944
-970
-928
-833
-764
-770
-811
-816
-777
-736
-749
-807
-855
-841
-768
-683
-635
-626
-634
-655
-695
-721
-676
-553
-448
-465
-592
-678
-608
-451
-368
-427
-517
-392
-300
-268
-346
-438
-433
-353
-324
-401
-491
-520
-460
-458
-543
-603
-529
-378
-303
-353
-422
-481
-372
-276
-291
-376
-406
-314
-163
-91
-152
-268
-308
-224
-92
-41
-135
-317
-451
-356
-297
-352
-463
-316
-143
-112
-252
-392
-370
-222
-145
-261
-461
-527
-388
-201
-147
-221
-263
-167
-27
-27
-189
-352
-342
-195
-86
-124
-234
-273
-202
-106
-81
-136
-212
-256
-256
-220
-186
-182
-196
-181
-131
-92
-125
-200
-232
-194
-163
-219
-322
-15
-3
20
-19
-126
-221
-237
-192
-162
-186
-354
-262
-140
-100
-143
-159
-82
23
62
26
-230
-233
-172
-86
-25
-21
-51
-54
0
70
79
1
-91
-92
12
115
105
-15
-149
-214
-210
-180
-145
-90
-28
-17
-85
-153
-124
-2
91
57
-51
-86
9
112
74
-86
-181
-96
80
149
44
-114
-175
-114
-25
10
-5
-11
17
51
55
18
-41
-65
-30
24
30
-28
-97
-89
9
130
192
175
129
105
112
121
104
62
27
10
-6
-22
9
136
314
402
320
169
153
337
547
556
348
159
204
436
598
531
331
225
293
373
295
90
-38
50
255
337
190
-59
-166
-50
131
152
-30
-243
-284
-146
-21
-65
-222
-297
-197
-37
1
-116
-92
-283
-295
-106
104
137
-21
-195
-218
-101
23
50
18
32
155
379
687
1100
1638
2284
-247
-243
-127
-50
-106
-226
-252
-122
41
67
2972
3656
4365
5144
5920
6482
6636
6401
5977
5518
4944
4077
2932
1799
986
525
194
-187
-545
-679
-532
-285
-170
-248
-394
-466
-442
-422
-510
-706
-900
-981
-931
-844
-841
-926
-1000
-971
-859
-773
-772
-794
-762
-661
-575
-584
-668
-737
-738
-692
-660
-647
-593
-470
-337
-299
-372
-446
-399
-261
-163
-179
-247
-276
-262
-272
-310
-292
-169
-31
-14
-127
-244
-247
-144
-34
7
-22
-81
-117
268
215
275
383
434
408
392
461
576
643
-98
-9
118
200
199
180
224
330
405
371
631
614
677
808
898
880
804
796
916
1092
1193
1181
1132
1163
1281
1396
1430
1396
1356
1350
1383
1449
1536
1597
1582
1510
1486
1576
1715
1762
1678
1577
1582
1661
1670
1547
1402
1382
1491
1587
1535
1366
1212
1151
1111
983
753
540
439
407
315
115
-95
-184
-149
-122
-225
-441
-651
-778
-1060
-1002
-1017
-1117
-1250
-1331
-1295
-1156
-1019
-992
-831
-866
-900
-925
-941
-981
-1060
-1144
-1177
-1139
-1092
-1217
-1247
-1156
-1026
-957
-975
-1039
-1083
-1074
-1019
-946
-901
-911
-975
-1048
-1068
-1019
-925
-857
-877
-967
-1030
-979
-827
-692
-682
-773
-837
-783
-663
-592
-623
-674
-637
-518
-434
-460
-547
-582
-544
-521
-575
-639
-598
-482
-438
-544
-681
-647
-433
-252
-291
-483
-592
-498
-323
-254
-321
-402
-408
-394
-447
-536
-555
-461
-337
-275
-281
-286
-274
-292
-355
-410
-410
-384
-414
-494
-522
-423
-261
-188
-252
-352
-353
-244
-156
-198
-333
-425
-393
-285
-216
-235
-285
-285
-233
-193
-211
-265
-295
-284
-262
-248
-251
-268
-315
-375
-368
-306
-269
-262
-255
-272
-324
-353
-281
-152
-95
-189
-347
-400
-281
-112
-65
-178
-328
-386
-354
-316
-315
-296
-212
-123
-116
-188
-222
-145
-34
-20
-136
-258
-254
-143
-63
-117
-257
-355
-336
-248
-189
-197
-234
-251
-229
-182
-150
-152
-185
-213
-200
-150
-126
-183
-284
-320
-224
-53
51
22
-77
-139
-126
-80
-56
-70
-106
-149
-170
-154
-94
-33
-24
-84
-163
-182
-116
-47
-74
-213
-341
-313
-128
67
101
-31
-180
-203
-110
-21
-18
-65
-76
-36
-11
-40
-87
-90
-31
28
26
-24
-64
-70
-61
-46
8
100
169
138
-38
-168
-208
-130
-39
-40
-125
-195
-175
-87
28
-45
-9
70
71
-28
-115
-88
11
50
-4
38
64
92
94
35
-32
-16
96
186
141
-9
-117
-79
49
123
74
-24
-66
-35
-3
-15
-36
-10
60
91
23
-100
-160
-75
108
233
183
-10
-175
-169
-14
129
132
19
-89
-111
-66
-29
-34
-70
-106
-123
-122
-115
-114
-93
-13
118
215
205
134
127
225
323
294
165
100
197
373
471
425
316
260
293
356
372
309
202
119
98
115
112
70
27
40
104
161
161
96
7
-49
-35
25
42
-53
-216
-317
-297
-229
-217
-257
-245
-161
-99
-143
-230
-231
-129
-66
-161
-341
-414
-288
-79
30
-12
-90
-75
46
165
188
110
-4
-94
-134
-119
-53
66
252
538
954
1503
2140
2821
3530
4266
5000
5636
6043
6150
5990
5659
5215
4614
3787
2769
1753
945
392
-29
-425
-740
-816
-628
-764
-741
-760
-792
-777
-718
-686
-710
-740
-718
-375
-305
-442
-589
-557
-391
-301
-409
-619
-752
-644
-571
-532
-520
-513
-498
-478
-471
-476
-492
-502
-479
-420
-361
-352
-415
-507
-547
-495
-390
-299
-268
-281
-266
-187
-73
-1
-7
-74
-134
-126
-52
33
66
24
-35
-17
108
276
376
337
424
461
451
471
579
732
812
761
656
363
291
239
247
310
367
375
332
279
273
610
666
761
820
830
854
934
1042
1119
1148
1174
1252
1369
1441
1413
1328
1294
1371
1507
1600
1605
1582
1626
1725
1782
1749
1684
1664
1681
1673
1622
1593
1632
1689
1687
1642
1620
1630
1587
1448
1313
1309
1399
1394
1174
861
690
732
818
731
448
133
-49
-89
-79
-106
-178
-284
-421
-565
-668
-708
-734
-809
-933
-1058
-1150
-1208
-1235
-1203
-1211
-1254
-1283
-1238
-1119
-1004
-972
-1007
-1021
-972
-1097
-974
-929
-1000
-1128
-1227
-1259
-1245
-1217
-1200
-911
-908
-959
-994
-967
-907
-875
-878
-874
-838
-774
-702
-639
-600
-610
-659
-695
-685
-664
-698
-791
-852
-796
-655
-550
-543
-578
-568
-505
-465
-485
-527
-525
-474
-398
-337
-314
-323
-342
-324
-260
-212
-267
-418
-553
-567
-475
-381
-350
-339
-295
-231
-211
-252
-299
-297
-258
-251
-358
-362
-318
-304
-325
-289
-201
-151
-198
-288
-319
-278
-257
-324
-424
-431
-315
-203
-216
-321
-379
-321
-223
-198
-255
-295
-268
-233
-260
-319
-310
-207
-93
-83
-178
-278
-295
-241
-191
-198
-239
-250
-183
-97
-32
-103
-277
-384
-308
-126
-26
-106
-197
-126
-105
-149
-198
-185
-117
-75
-115
-183
-264
-320
-212
-50
34
18
-27
-57
-77
-99
-102
-69
-28
-34
-99
-181
-224
-210
-146
-71
-39
-69
-110
-84
19
107
90
-7
-79
-58
8
34
5
-19
-8
-7
-45
-90
-73
9
67
9
-139
-243
-187
-26
74
9
-128
-155
-33
77
30
-111
-148
-8
144
113
-69
-172
-65
121
160
20
-91
4
218
301
157
-37
-41
146
302
251
71
-33
21
124
139
79
46
67
74
10
-73
-79
-2
72
76
28
-4
22
77
113
112
77
20
-12
35
162
73
142
195
222
264
326
357
325
268
253
280
272
122
-35
-38
117
276
289
173
71
292
346
384
410
422
404
347
298
308
379
434
409
323
262
276
326
328
251
152
107
134
178
176
116
44
16
43
82
90
61
25
14
13
-22
-95
-147
-113
-2
101
106
4
-113
-127
1
158
175
-6
-240
-303
-128
108
170
24
-125
-79
121
266
217
41
-101
-134
-103
-67
-35
23
140
358
733
1273
1903
2519
3104
3730
4446
5173
5745
6050
6089
5930
5608
5099
4370
3433
2382
1400
643
138
-223
-518
-673
-560
-240
26
22
-176
-288
-210
-137
-307
-672
-940
-922
-740
-633
-661
-682
-597
-496
-546
-746
-918
-910
-752
-605
-560
-557
-504
-397
-313
-292
-294
-275
-251
-287
-392
-505
-557
-537
-464
-365
-261
-191
-200
-246
-229
-85
108
191
98
-71
-149
-84
17
30
-45
-93
-35
82
157
171
200
305
432
473
391
276
255
366
522
588
524
420
381
438
529
595
624
628
609
583
589
688
852
973
984
927
910
972
1054
1092
1100
1132
1195
1260
1327
1428
1545
1609
1590
1562
1613
1723
1772
1698
1586
1571
1677
1806
1860
1847
1829
1808
1747
1664
1627
1661
1702
1686
1624
1580
1572
1533
1411
1241
1092
984
873
726
572
460
394
341
285
238
201
125
-16
-195
-346
-437
-500
-585
-705
-806
-835
-805
-790
-861
-980
-1053
-1039
-1002
-1037
-1148
-1241
-1240
-1164
-1103
-1108
-1136
-1119
-1047
-978
-962
-991
-1018
-1010
-981
-979
-1010
-1034
-1024
-1001
-1011
-1043
-1025
-907
-747
-668
-718
-827
-877
-822
-718
-658
-688
-767
-815
-788
-695
-593
-550
-586
-648
-660
-578
-453
-392
-441
-539
-562
-474
-351
-312
-383
-473
-497
-471
-448
-447
-423
-355
-291
-294
-353
-387
-359
-323
-342
-397
-410
-350
-285
-300
-381
-421
-366
-276
-242
-267
-280
-241
-184
-177
-208
-223
-190
-144
-198
-302
-405
-404
-281
-171
-156
-246
-350
-370
-294
-206
-188
-242
-297
-294
-247
-200
-174
-160
-153
-184
-258
-310
-273
-173
-108
-136
-198
-212
-172
-153
-187
-224
-226
-242
-315
-388
-326
-107
99
110
-60
-218
-211
-89
-17
-60
-155
-220
-245
-253
-112
-128
-104
-53
0
28
5
-70
-141
-147
-222
-120
-6
17
-84
-222
-272
-212
-125
-92
-76
9
32
-9
-62
-81
-76
-76
-76
-47
-84
15
62
25
-32
-47
-20
17
36
40
-20
-25
-37
-88
-136
-131
-92
-86
-126
-145
2
21
-29
-110
-135
-57
70
145
111
27
30
1
-42
-57
-8
90
164
158
90
38
58
130
173
120
-8
-127
-167
-142
-108
-106
-108
-60
44
132
135
73
57
153
293
324
183
-21
-129
-85
9
35
-23
-73
-44
45
125
158
152
140
126
114
107
97
80
51
37
52
80
92
89
102
134
131
50
-66
-112
-43
52
51
-33
-79
-16
78
82
12
-17
63
162
150
24
-70
-22
107
172
116
25
18
96
157
135
72
44
43
15
-49
-78
-19
62
77
43
75
232
405
442
337
227
207
226
165
23
-53
25
190
280
243
192
255
400
497
474
397
384
449
488
417
286
224
302
440
499
391
175
-3
-28
83
194
187
66
-58
-96
-64
-47
-87
-136
-149
-141
-170
-261
-356
-374
-278
-114
20
42
-45
-154
-178
-86
28
47
-56
-198
-266
-223
-129
-49
-15
-17
-34
-41
-8
56
88
32
-94
-169
-73
180
494
834
1274
1897
2658
3435
4160
4866
5560
6128
6409
6362
6078
5645
5048
4225
3201
2147
1256
614
170
-177
-485
-702
-735
-538
-221
2
-31
-283
-548
-640
-582
-554
-692
-919
-1015
-881
-647
-540
-622
-738
-731
-638
-625
-765
-934
-966
-843
-697
-641
-652
-657
-637
-613
-595
-550
-465
-382
-335
-323
-309
-287
-277
-281
-288
-301
-347
-414
-429
-345
-222
-172
-217
-224
-84
132
243
178
59
39
97
89
-28
-133
-88
70
188
180
128
150
237
299
300
303
375
474
505
438
375
422
560
670
684
661
692
790
874
872
807
775
839
973
1088
1115
1073
1051
1129
1287
1413
1418
1334
1278
1326
1438
1519
1530
1529
1585
1690
1768
1751
1658
1597
1662
1815
1904
1811
1606
1481
1535
1660
1674
1541
1402
1386
1436
1392
1203
1001
931
969
944
762
488
278
205
189
111
-59
-250
-370
-396
-390
-423
-516
-647
-790
-907
-967
-964
-938
-949
-1033
-1146
-1215
-1212
-1177
-1163
-1170
-1163
-1132
-1106
-1112
-1132
-1115
-1048
-969
-932
-957
-1031
-1105
-1142
-1138
-1119
-1099
-1064
-998
-928
-913
-961
-1008
-970
-857
-765
-771
-842
-889
-881
-838
-778
-701
-627
-606
-653
-719
-731
-678
-615
-585
-580
-571
-565
-574
-586
-548
-541
-582
-665
-636
-574
-504
-447
-422
-441
-461
-420
-363
-324
-288
-316
-376
-398
-368
-337
-339
-347
-318
-251
-313
-472
-569
-489
-298
-173
-206
-317
-318
-255
-210
-222
-274
-312
-306
-297
-342
-443
-522
-499
-396
-311
-308
-343
-332
-271
-230
-248
-272
-249
-196
-167
-176
-183
-172
-195
-275
-359
-370
-309
-254
-273
-349
-408
-404
-355
-303
-271
-263
-283
-328
-371
-364
-287
-166
-81
-93
-169
-229
-216
-154
-122
-167
-258
-316
-286
-187
-104
-42
-99
-223
-207
-4
210
227
42
-173
-259
-108
-169
-183
-104
-18
-64
-242
-387
-343
-161
-208
-122
-96
-146
-236
-305
-307
-225
-98
-14
-10
-54
-79
-71
-61
-65
-61
-43
-54
-122
-51
-230
-280
-174
-41
-9
-86
-178
-200
-142
-189
-181
-105
-72
-163
-299
-316
-158
36
87
-68
-29
-25
-18
15
46
39
-27
-108
-153
-147
-117
-88
-63
-24
19
42
47
75
123
115
16
-107
-140
-69
-11
-76
-192
-200
-56
96
106
-11
-108
-102
-47
-35
-63
-65
-22
0
-58
-156
-193
-106
36
107
51
-61
-108
-34
66
76
-5
-78
-72
-34
-47
-110
-138
-67
52
107
68
10
15
66
73
-10
-118
-145
-60
55
85
-1
-118
-156
-87
24
83
71
27
10
34
76
108
122
103
63
29
29
61
95
102
91
86
101
131
181
265
337
318
200
106
164
335
436
356
209
188
324
443
394
250
213
327
447
406
241
121
-130
-26
5
-57
-130
-151
-162
-218
-299
-326
134
191
164
40
-64
-72
-39
-65
-152
-194
-139
-63
-46
-127
-222
-227
-132
-31
-18
-80
-283
-248
-282
-327
-279
-132
4
14
-82
-163
-139
-160
-176
-211
-204
-61
230
582
941
1359
1955
2752
3616
4381
4996
5526
6011
6365
6463
6231
5701
4944
4044
3076
2119
1233
460
-170
-604
-795
-764
-604
-423
-304
-278
-322
-397
-453
-496
-582
-742
-919
-1001
-948
-836
-779
-779
-751
-654
-563
-580
-695
-772
-725
-612
-566
-620
-675
-632
-533
-500
-572
-649
-613
-470
-345
-338
-418
-485
-488
-453
-420
-398
-377
-363
-357
-332
-275
-204
-155
-152
-175
-173
-115
-14
65
58
-38
-122
-75
115
297
296
124
-18
54
298
479
437
259
154
219
356
424
407
397
452
532
563
569
626
732
800
760
664
643
750
916
1020
1032
1028
1076
1151
1179
1181
1257
1439
1594
1557
1342
1188
1318
1657
1891
1807
1535
1390
1521
1777
1914
1860
1739
1688
1719
1770
1793
1759
1657
1518
1411
1394
1433
1426
1307
1142
1048
1055
1059
960
773
594
474
354
171
-36
-168
-188
-197
-318
-538
-728
-783
-735
-700
-742
-837
-924
-975
-1006
-1042
-1084
-1106
-1084
-1022
-980
-1019
-1129
-1224
-1220
-1144
-1117
-1223
-1381
-1434
-1325
-1170
-1123
-1200
-1251
-1127
-995
-938
-1011
-1099
-1135
-1064
-926
-834
-855
-927
-944
-885
-832
-858
-925
-940
-882
-805
-754
-716
-673
-646
-670
-725
-740
-675
-578
-534
-566
-617
-624
-574
-508
-467
-467
-504
-561
-615
-634
-593
-503
-399
-322
-304
-340
-392
-409
-375
-341
-369
-417
-387
-340
-325
-333
-327
-296
-269
-277
-337
-301
-299
-370
-475
-518
-444
-309
-229
-271
-368
-456
-525
-508
-415
-325
-301
-331
-368
-372
-341
-428
-489
-464
-365
-288
-303
-371
-376
-273
-160
-168
-297
-404
-390
-297
-262
-331
-411
-393
-269
-135
-72
-72
-82
-95
-137
-214
-262
-213
-92
-18
-77
-213
-292
-237
-122
-82
-161
-279
-321
-265
-208
-246
-344
-361
-231
-67
-58
-248
-470
-502
-318
-120
-112
-280
-413
-335
-99
86
89
-22
-86
-44
23
18
-60
-140
-185
-221
-264
-275
-226
-150
-106
-104
-107
-88
-82
-115
-160
-151
-75
11
30
-33
-102
-82
18
94
70
-28
-87
-59
-21
-75
-196
-247
-145
17
68
-44
-177
-174
-41
54
1
-135
-200
-143
-71
-90
-160
-142
2
159
184
92
29
86
172
234
244
191
149
148
165
168
167
174
196
139
-19
-152
-144
-46
6
-39
-83
-22
125
319
160
31
-30
-69
-136
-211
-237
-219
-210
228
280
353
408
394
315
254
277
364
400
-230
-222
-146
-47
-4
-31
-76
-105
-170
-311
-455
-485
-394
-309
-349
-460
-479
-347
-186
-155
-247
-331
-306
-217
-172
-220
-303
-346
-332
-306
-305
-318
-306
-242
-160
-116
-137
-170
-157
-87
-9
46
123
320
706
1265
1919
2598
3280
3953
4582
5095
5413
5500
5384
5099
4636
3964
3099
2156
1305
660
205
-160
-493
-750
-825
-699
-493
-370
-398
-490
-547
-561
-606
-704
-781
-767
-698
-654
-667
-594
-496
-439
-470
-545
-558
-470
-361
-344
-654
-634
-543
-429
-398
-489
-621
-706
-723
-706
-418
-467
-406
-308
-313
-433
-518
-423
-193
-31
-71
-242
-337
-228
13
202
214
84
-44
-57
37
137
154
85
17
21
92
166
199
213
255
325
384
404
415
467
540
551
468
371
385
522
655
671
617
631
755
877
874
780
750
865
1012
1029
924
883
1045
1335
1545
1566
1476
1414
1449
1538
1624
1686
1707
1678
1639
1661
1768
1894
1927
1856
1774
1776
1851
1911
1893
1839
1824
1863
1890
1851
1756
1663
1604
1534
1378
1152
958
858
827
790
701
571
417
229
21
-147
-217
-227
-281
-423
-580
-650
-630
-622
-703
-838
-1148
-1251
-1255
-1133
-994
-963
-1043
-1122
-1107
-1013
-934
-962
-983
-1068
-1200
-1292
-1288
-1216
-1149
-1138
-1166
-1185
-1174
-1163
-1183
-1214
-1207
-1146
-1070
-1061
-923
-871
-840
-827
-840
-851
-805
-705
-647
-712
-835
-867
-762
-649
-679
-826
-901
-800
-624
-544
-601
-671
-648
-571
-553
-625
-682
-631
-410
-413
-440
-298
-226
-256
-354
-429
-435
-402
-376
-366
-360
-360
-368
-364
-311
-227
-189
-269
-428
-519
-444
-267
-154
-195
-320
-392
-367
-315
-304
-305
-270
-222
-238
-326
-390
-350
-252
-207
-257
-335
-355
-325
-298
-285
-262
-237
-271
-374
-459
-432
-308
-232
-298
-441
-496
-398
-237
-150
-173
-238
-268
-263
-254
-258
-248
-194
-136
-129
-199
-285
-300
-225
-149
-172
-277
-347
-301
-214
-210
-297
-346
-258
-93
10
-11
-80
-104
-85
-77
-92
-99
-95
-112
-168
-220
-217
-170
-142
-158
-173
-133
-58
-39
-123
-242
-263
-148
-2
28
-72
-178
-169
-76
-26
-67
-110
-70
6
-6
-139
-276
-279
-160
-56
-62
-132
-157
-100
-17
29
45
63
67
19
-71
-123
-83
2
18
-76
-188
-187
-65
64
81
-3
-75
-57
3
26
8
13
67
105
61
-30
-55
32
162
222
186
130
124
160
175
146
104
81
68
46
13
16
101
258
401
452
419
393
443
518
496
340
166
107
162
198
128
35
48
171
274
253
162
133
191
221
111
-93
-245
-255
-176
-126
-146
-187
-194
-177
-182
-210
-213
-163
-85
-36
-53
-139
-246
-297
-243
-122
-47
-98
-215
-257
-149
26
123
110
78
91
106
47
-80
-165
-135
-46
5
39
184
522
1004
1519
2047
2666
3421
4238
4988
5581
5997
6226
6244
6020
5545
4814
3851
2776
1781
1009
451
-12
-432
-733
-503
-601
-768
-865
-810
-660
-560
-589
-703
-796
-791
-614
-351
-176
-169
-296
-466
-576
-577
-519
-815
-798
-801
-828
-841
-804
-715
-621
-566
-568
-344
-287
-265
-277
-279
-230
-162
-155
-214
-230
-597
-600
-547
-458
-383
-361
-385
-416
-424
-397
-121
49
108
-13
-182
-211
-74
67
72
-25
-83
-21
110
208
232
209
189
200
241
294
330
340
348
382
436
477
497
531
609
698
710
615
508
530
693
860
891
824
824
981
1196
1309
1304
1312
1412
1512
1468
1310
1216
1294
1439
1477
1404
1398
1573
1801
1857
1707
1550
1561
1689
1727
1588
1405
1344
1417
1506
1535
1537
1563
363
276
73
-114
-180
-168
-218
-377
-545
-613
1571
1494
1339
1182
1067
938
741
516
368
347
-618
-690
-853
-982
-963
-848
-807
-928
-1105
-1183
-1149
-1109
-1156
-1263
-1329
-1309
-1244
-1188
-1159
-1135
-1091
-1026
-955
-910
-907
-939
-980
-1007
-1002
-968
-918
-863
-820
-809
-834
-867
-865
-821
-773
-775
-829
-871
-859
-824
-818
-841
-841
-787
-740
-760
-814
-814
-730
-631
-593
-591
-548
-467
-443
-530
-649
-669
-563
-447
-433
-496
-524
-459
-362
-324
-351
-372
-363
-369
-417
-460
-432
-334
-254
-257
-310
-329
-276
-189
-139
-160
-233
-316
-375
-383
-341
-278
-255
-313
-425
-494
-438
-285
-154
-142
-218
-258
-195
-107
-113
-228
-338
-345
-235
-267
-343
-408
-400
-386
-368
-362
-379
-401
-369
-264
-136
-73
-91
-117
-85
-29
-47
-163
-279
-277
-175
-107
-163
-289
-349
-279
-162
-124
-178
-236
-215
-132
-72
-95
-176
-233
-225
-175
-143
-161
-219
-282
-312
-286
-201
-93
-26
-48
-129
-183
-147
-64
-39
-110
-191
-173
-58
24
-30
-172
-244
-151
26
119
52
-108
-224
-215
-127
-68
-114
-223
-288
-226
-74
45
42
-44
-97
-53
38
88
62
-8
-75
-113
-102
-50
11
34
8
-28
-27
-4
-9
-79
-164
-184
-121
-29
-2
-72
-164
-161
-44
94
126
52
-9
40
155
188
63
-126
-204
-99
67
103
-45
-227
-247
-82
95
110
-12
-100
-40
94
163
147
135
174
202
131
-18
-133
-160
-131
-100
-65
-24
6
-1
-20
16
117
208
200
101
10
3
60
100
80
33
22
88
190
230
157
2
-127
-134
-24
98
129
52
-49
-83
-35
24
42
20
12
34
53
33
6
33
128
218
199
57
-81
-88
30
134
98
-46
-140
-64
143
334
391
319
210
150
162
202
208
156
72
18
41
143
273
362
385
390
434
512
525
398
195
72
127
272
328
220
41
-75
-73
-2
62
87
65
-4
-81
-114
-77
-14
12
-6
-36
-61
-103
-176
-224
-187
-97
-70
-168
-290
-295
-146
10
15
-120
-235
-211
-89
5
0
-48
-58
-37
-37
-68
-84
-73
-90
-176
-277
-290
-188
-27
168
480
993
1667
2368
3042
3775
4646
5519
6137
6378
6360
6262
6068
5586
4710
3601
2561
1764
1163
614
45
-463
-761
-777
-593
-398
-349
-446
-558
-579
-532
-526
-598
-672
-671
-618
-604
-672
-753
-770
-734
-737
-823
-923
-925
-818
-720
-727
-800
-805
-681
-512
-447
-524
-643
-680
-596
-455
-349
-323
-353
-379
-367
-341
-335
-334
-299
-221
-150
-135
-164
-177
-150
-110
-72
-25
35
61
4
-84
-93
-1
106
115
34
-4
83
231
294
230
134
122
202
269
243
165
148
247
403
511
545
580
690
851
974
988
918
851
835
841
850
868
925
1006
1058
1078
1127
1247
1397
1474
1447
1401
1414
1641
1642
1642
1654
1677
1689
1667
1617
1552
1499
1483
1543
1563
1578
1630
1701
1734
1711
1668
1645
1463
1429
1362
1249
1101
963
854
773
702
620
511
375
235
118
36
-47
-171
-343
-508
-595
-603
-601
-655
-766
-883
-957
-985
-988
-989
-1016
-1093
-1217
-1332
-1355
-1272
-1159
-1113
-1137
-1161
-1138
-1116
-1147
-1203
-1194
-1108
-1043
-1079
-1168
-1175
-1051
-902
-873
-972
-1062
-1042
-962
-944
-1026
-1110
-1095
-988
-864
-781
-734
-719
-749
-807
-834
-789
-719
-728
-845
-971
-979
-864
-723
-645
-610
-555
-484
-447
-483
-550
-590
-596
-611
-641
-654
-624
-565
-510
-459
-402
-364
-376
-416
-419
-376
-493
-656
-689
-267
-156
-243
-389
-433
-364
-294
-312
-399
-474
-486
-445
-395
-371
-386
-402
-381
-330
-299
-319
-369
-401
-386
-337
-284
-240
-233
-283
-364
-401
-351
-266
-249
-355
-509
-574
-480
-288
-150
-170
-304
-394
-337
-185
-88
-125
-244
-341
-373
-353
-299
-210
-126
-114
-199
-303
-317
-234
-154
-173
-256
-300
-268
-224
-234
-274
-264
-186
-106
-98
-155
-208
-226
-239
-270
-281
-228
-141
-103
-143
-193
-168
-76
-21
-81
-189
-216
-123
-22
-33
-136
-190
-117
-8
18
-54
-123
-135
-138
-201
-276
-256
-115
19
22
-86
-172
-135
-31
20
-43
-148
-188
-131
-41
-8
-41
-79
-59
3
32
-15
-101
-154
-139
-94
-75
-85
-83
-68
-99
-81
-29
12
8
-30
-53
-45
-33
-50
-3
10
-18
-58
-87
-98
-90
-69
-34
9
36
35
12
0
10
35
50
36
-10
-47
-66
-58
-10
32
18
-44
-93
-86
-45
-20
-36
-62
-63
-46
-45
-56
-45
22
111
149
111
41
5
13
17
-23
-91
-134
-107
-19
59
72
30
5
51
131
143
42
-94
-169
-157
-116
-98
-76
-2
113
193
187
130
-128
-139
-86
-19
3
-28
-59
-30
67
175
99
123
164
161
96
13
-37
-42
-45
-80
228
217
192
197
226
243
216
179
190
261
330
315
213
113
120
248
396
434
354
265
281
376
416
322
169
87
108
134
94
30
-144
-133
-116
-122
-149
-172
-164
-125
-94
-118
17
46
36
-37
-104
-94
-35
-6
-45
-111
-179
-191
-103
28
85
-1
-164
-291
-325
-290
-236
-186
-151
-140
-133
-79
39
167
205
125
4
-66
-70
-44
30
247
682
1284
1939
2592
3279
4028
4779
5424
5879
6126
6145
5878
5291
4463
3536
2605
1698
846
141
-317
-548
-683
-796
-822
-650
-328
-81
-101
-341
-553
-577
-492
-498
-680
-909
-992
-872
-676
-563
-581
-656
-693
-678
-652
-640
-615
-562
-510
-501
-535
-559
-537
-484
-459
-490
-543
-573
-563
-517
-473
-454
-452
-427
-343
-91
-5
-8
-69
-82
-7
89
120
76
8
-230
-152
-146
-160
-118
-34
-1
-71
-168
-181
-23
15
116
239
331
353
314
273
284
352
427
462
460
444
435
450
495
576
667
738
781
813
843
861
861
877
963
1102
1212
1221
1162
1138
1208
1326
1404
1403
1371
1373
1420
1465
1483
1514
1606
1737
1812
1788
1725
1735
1819
1856
1774
1654
1628
1699
1724
1617
1476
1456
1550
1580
1444
1240
1143
1166
1145
947
643
421
369
388
-730
-643
-692
-903
-1137
-1220
-1129
-1031
-1096
-1290
316
101
-145
-282
-285
-261
-334
-519
-716
-794
-1433
-1402
-1276
-1225
-1296
-1366
-1305
-1153
-1048
-1078
-1206
-1321
-1351
-1297
-1209
-1151
-1156
-1201
-1201
-1099
-928
-794
-774
-831
-872
-849
-832
-900
-1103
-1077
-999
-980
-954
-844
-726
-708
-780
-825
-749
-606
-528
-570
-647
-652
-581
-516
-513
-545
-550
-537
-563
-641
-701
-655
-512
-366
-318
-362
-417
-421
-388
-359
-356
-376
-409
-448
-472
-439
-357
-304
-139
-207
-348
-398
-331
-282
-356
-493
-546
-451
-336
-423
-447
-368
-276
-305
-445
-538
-452
-252
-300
-217
-232
-265
-239
-169
-139
-195
-294
-355
-348
-330
-359
-414
-402
-269
-88
-2
-53
-168
-230
-209
-163
-168
-222
-272
-276
-230
-168
-120
-114
-164
-239
-274
-239
-190
-220
-338
-439
-400
-233
-80
-74
-185
-280
-295
-267
-271
-294
-285
-231
-185
-180
-177
-118
-20
45
14
-95
-211
-266
-241
-175
-136
-174
-254
-268
-142
59
156
47
-160
-260
-171
-28
-13
-147
-278
-277
-177
-116
-159
-233
-251
-199
-135
-95
-81
-92
-127
-170
-191
-163
-93
-20
11
-20
-80
-108
-49
73
153
112
-4
-80
-57
-5
-17
-82
-100
-40
17
-35
-158
-207
-104
45
72
-53
-173
-127
40
136
55
-90
-120
-3
119
113
4
-101
-130
-102
-57
2
65
79
8
-96
-124
-37
89
143
100
27
-3
12
26
-4
-50
-74
-54
11
93
155
173
148
100
60
31
4
-16
-15
-12
-50
-120
-140
-34
141
245
198
79
22
44
62
25
-18
1
69
102
81
54
55
51
2
-62
-86
-60
-14
23
62
129
207
265
297
326
375
430
445
404
348
345
422
522
546
457
314
223
214
222
179
96
31
3
-15
-45
-64
-46
-19
-26
-58
-74
-65
-73
-122
-171
-156
-83
-28
-41
-96
-136
-136
-112
-81
-59
-94
-205
-327
-345
-236
-114
-117
-232
-305
-217
-31
100
86
-33
-148
-203
-200
-168
-160
-194
-228
-197
-67
113
305
570
1019
1659
2343
2920
3431
4046
4821
5564
6004
6073
5920
5672
5233
4455
3385
2308
1467
851
290
-277
-713
-868
-774
-599
-464
-386
-343
-359
-449
-567
-651
-700
-749
-812
-834
-790
-731
-724
-774
-820
-831
-842
-885
-918
-888
-798
-730
-729
-753
-732
-658
-592
-589
-635
-662
-626
-544
-458
-401
-383
-387
-400
-415
-429
-446
-459
-449
-422
-394
-355
-264
-125
-17
-18
-102
-143
-61
59
198
229
120
2
40
239
409
387
246
222
61
-85
-244
-258
-130
0
20
-36
-42
63
433
722
838
744
650
741
941
1024
900
713
659
762
890
953
969
995
1053
1142
1256
1376
1442
1422
1376
1390
1460
1486
1412
1325
1347
1486
1620
1662
1654
1670
1707
1723
1725
1749
1782
1753
1650
1554
1527
1524
1447
1293
1181
1184
1220
1147
918
652
489
451
445
362
161
-97
-295
-355
-314
-303
-410
-584
-690
-675
-640
-696
-842
-964
-994
-992
-1044
-1149
-1229
-1256
-1285
-1354
-1395
-1318
-1151
-1037
-1084
-1214
-1262
-1160
-1028
-1021
-1290
-1287
-1161
-1042
-1107
-1138
-1081
-978
-900
-876
-881
-897
-935
-973
-961
-875
-774
-751
-814
-872
-843
-762
-740
-805
-867
-836
-738
-678
-697
-713
-657
-570
-565
-653
-708
-622
-482
-478
-662
-844
-804
-560
-348
-344
-457
-485
-372
-264
-287
-385
-426
-389
-371
-423
-466
-420
-323
-279
-308
-323
-267
-195
-202
-283
-350
-358
-348
-365
-406
-431
-439
-469
-523
-546
-492
-384
-289
-246
-234
-235
-238
-249
-264
-273
-274
-266
-261
-294
-403
-540
-579
-430
-186
-66
-170
-352
-378
-197
-7
-8
-191
-356
-359
-254
-202
-267
-378
-423
-371
-293
-260
-287
-323
-328
-304
-282
-250
-187
-108
-61
-77
-117
-134
-134
-159
-218
-272
-286
-283
-281
-260
-194
-109
-79
-117
-141
-74
48
104
46
-57
-99
-72
-50
-87
-158
-203
-204
-180
-148
-110
-64
-14
31
57
51
7
-59
-118
-145
-150
-146
-134
-119
-117
-129
-129
-89
-31
4
12
32
71
70
0
-69
-48
32
23
-124
-263
-213
-9
121
59
-55
-14
186
319
239
52
-24
59
151
130
51
42
121
170
92
-60
-148
19
17
32
22
-4
8
80
169
226
241
-105
-3
38
-23
-109
-120
-39
55
88
58
236
208
122
-14
-116
-102
0
85
87
48
44
92
137
156
173
199
189
109
13
-3
85
180
182
95
39
91
202
246
172
52
3
52
131
162
145
131
140
144
117
88
295
225
136
57
51
143
253
262
159
74
119
210
279
265
193
157
208
301
354
345
132
297
408
368
257
221
311
424
439
335
207
154
192
253
263
222
188
205
243
242
192
169
241
378
477
480
424
395
423
460
457
414
379
382
417
441
421
378
368
430
534
604
607
581
590
645
701
726
714
693
683
688
695
699
686
659
616
563
508
468
466
498
529
533
521
512
503
475
435
417
419
382
271
146
121
232
373
410
321
221
232
353
466
480
403
329
313
337
342
328
332
371
416
422
397
392
438
495
503
465
443
468
492
433
297
188
208
356
562
796
1122
1611
2237
2911
3593
4325
5133
5923
6525
6852
6957
6925
6724
6237
5419
4403
3396
2521
1761
1057
442
16
-152
-105
45
198
299
331
303
242
174
106
40
-21
-63
-83
-93
-96
-73
-5
87
151
155
117
84
92
148
250
368
465
507
501
489
497
516
522
524
547
594
637
659
681
732
815
903
977
1030
1073
1112
1148
1175
1198
1222
1256
1297
1343
1395
1456
1520
1560
1565
1569
1619
1723
1817
1842
1808
1792
1833
1898
1937
1954
1999
2081
2152
2168
2165
2210
2322
2436
2502
2531
2585
2681
2750
2739
2693
2714
2828
2950
2976
2918
2868
2888
2964
3046
3120
3200
3277
3246
3615
3560
3523
3542
3590
3587
3496
3358
3267
3272
3229
3372
3444
3456
3430
3412
3440
3508
3585
3630
3312
3294
3189
3060
2972
2919
2837
2696
2534
2405
2306
2185
1998
1778
1592
1476
1405
1327
1223
1107
988
866
751
667
626
581
478
338
249
260
298
244
101
7
77
233
277
145
-24
-55
58
154
121
25
-1
69
138
124
55
16
22
30
5
-29
-29
-4
19
31
51
83
124
170
235
304
323
258
162
141
231
340
355
275
206
232
311
345
309
274
309
391
420
351
253
233
320
433
452
355
239
228
342
484
538
467
359
331
404
487
463
313
154
141
293
476
522
414
298
314
442
547
535
449
394
393
385
330
264
257
312
370
394
401
409
408
384
367
404
470
491
424
334
311
366
429
429
368
304
280
290
329
368
374
309
202
147
220
370
446
366
200
113
184
324
374
291
184
175
256
316
276
169
91
83
104
91
14
-97
-181
-180
-99
-22
-35
-131
-204
-192
-153
-199
-329
-416
-368
-245
-202
-289
-397
-387
-255
-120
-99
-192
-314
-363
-315
-219
-173
-233
-363
-438
-354
-143
23
-1
-184
-333
-291
-109
17
-40
-180
-221
-115
7
35
10
45
150
199
113
-35
-93
-24
64
73
39
57
153
244
261
221
199
232
287
311
288
230
172
157
206
283
299
214
109
109
218
295
215
65
62
282
534
577
409
251
281
426
484
391
297
342
482
553
496
415
437
543
604
545
418
341
355
401
424
431
455
501
526
506
476
482
521
534
472
372
320
350
391
353
245
162
179
259
308
289
266
292
338
334
281
246
275
316
284
179
96
113
207
289
304
283
304
387
461
436
304
163
101
115
115
50
-37
-76
-53
-20
-5
35
140
252
268
163
56
60
161
232
180
47
-46
-43
5
42
77
145
233
289
293
298
360
468
541
511
383
252
216
285
370
370
280
220
295
449
533
493
437
477
581
592
454
311
333
499
616
530
292
90
54
159
273
286
190
83
71
154
227
198
87
11
27
66
21
-116
-227
-218
-115
-5
59
75
61
18
-23
-4
83
143
75
-79
-164
-93
38
72
-15
-74
15
185
260
166
16
-35
28
85
41
-68
-131
-80
65
260
514
896
1461
2174
2960
3760
4564
5376
6150
6791
7214
7374
7253
6835
6117
5148
4037
2929
1930
1074
349
-226
-586
-669
-525
-328
-241
-277
-312
-252
-170
-213
-409
-612
-679
-628
-595
-646
-694
-642
-521
-484
-616
-810
-882
-761
-568
-477
-530
-613
-602
-505
-420
-409
-438
-436
-396
-370
-385
-391
-347
-283
-275
-341
-409
-412
-284
-242
-201
-112
-89
-41
57
129
86
-44
-102
25
236
327
228
89
87
209
300
273
204
214
305
388
407
412
461
540
597
610
620
669
747
814
860
893
926
951
971
1004
1068
1136
1168
1151
1140
1194
1322
1454
1509
1483
1456
1498
1590
1645
1631
1611
1655
1744
1800
1783
1762
1816
1922
1992
1994
1987
2010
2002
1893
1741
1691
1778
1854
1764
1566
1453
1511
1606
1561
1391
1258
1241
1228
1067
780
539
451
440
357
167
-27
-121
-140
-186
-319
-507
-663
-739
-763
-788
-852
-954
-1066
-1148
-1172
-1143
-1089
-1064
-1103
-1205
-1313
-1351
-1288
-1190
-1166
-1243
-1314
-1245
-1050
-895
-927
-1096
-1212
-1150
-993
-924
-1019
-1173
-1231
-1138
-975
-841
-784
-800
-865
-944
-979
-924
-803
-706
-695
-742
-755
-701
-619
-564
-525
-459
-374
-340
-402
-505
-543
-465
-322
-214
-199
-251
-292
-260
-174
-103
-105
-160
-197
-177
-132
-118
-149
-175
-145
-67
-3
-3
-59
-107
-81
2
51
-27
-210
-366
-371
-239
-114
-125
-247
-333
-268
-96
41
53
-26
-92
-99
-94
-131
-196
-236
-228
-198
-171
-137
-100
-80
-91
-105
-75
-9
22
-33
-125
-153
-97
-42
-70
-150
-191
-163
-133
-158
-212
-225
-175
-107
-62
-24
36
86
76
-11
-108
-141
-97
-43
-33
-57
-76
-69
-47
-29
-15
7
32
21
-60
-167
-207
-130
-10
31
-39
-110
-65
73
162
116
9
-22
52
127
107
11
-76
-103
-82
-52
-21
4
16
24
46
87
120
138
164
216
252
197
49
-77
-61
40
170
209
100
-41
-64
51
182
193
87
75
172
120
-10
-43
71
199
190
65
-21
-13
-6
72
112
68
13
33
112
152
106
125
169
200
213
223
236
222
158
74
24
37
15
20
-20
-107
-168
-141
-51
33
83
27
56
72
79
96
129
152
124
54
-11
125
206
318
354
292
214
199
245
295
318
-19
33
67
33
-27
-24
69
172
192
141
312
289
259
264
329
430
490
462
395
378
410
393
265
92
16
79
185
214
151
83
82
131
174
181
157
121
82
35
-19
-61
-83
-82
-65
-40
-24
-32
-84
-170
-239
-221
-110
8
23
-70
-141
-88
33
76
-6
-84
-34
99
148
47
-62
-28
118
195
106
-43
-89
8
167
339
580
961
1466
2040
2680
3412
4173
4818
5243
5501
5676
5747
5568
5032
4198
3256
2373
1596
894
234
-344
-737
-859
-734
-523
-391
-360
-325
-198
-44
-9
-156
-375
-506
-505
-461
-484
-560
-588
-513
-414
-425
-577
-738
-753
-602
-437
-401
-476
-514
-407
-217
-110
-171
-313
-388
-338
-240
-215
-303
-421
-441
-321
-148
-55
-90
-173
-169
-33
139
219
179
101
94
154
211
215
189
184
218
258
267
221
147
162
294
409
335
304
415
603
708
656
546
536
657
795
839
791
747
778
867
949
996
1033
1074
1084
1041
989
1028
1172
1309
1322
1242
1234
1384
1572
1620
1518
1449
1563
1776
1880
1792
1651
1648
1804
1973
2028
1973
1921
1941
2008
2041
2004
1932
1871
1822
1753
1658
1572
1544
1566
1567
1487
1351
1224
1136
1038
855
595
343
182
111
63
4
-47
-98
-196
-359
-516
-581
-580
-632
-793
-978
-1055
-1035
-1031
-1081
-1096
-1004
-901
-944
-1133
-1277
-1234
-1083
-1025
-1122
-1245
-1256
-1171
-1098
-1081
-1083
-1072
-1064
-1065
-1035
-959
-900
-917
-994
-1021
-956
-870
-850
-880
-876
-808
-745
-745
-775
-770
-716
-681
-707
-768
-791
-745
-671
-625
-621
-624
-583
-494
-414
-415
-509
-620
-660
-600
-506
-461
-486
-538
-548
-490
-397
-304
-256
-273
-348
-433
-472
-434
-347
-280
-282
-343
-391
-378
-316
-264
-261
-305
-344
-344
-304
-249
-210
-211
-236
-241
-202
-137
-113
-161
-252
-319
-328
-316
-324
-333
-294
-205
-148
-194
-297
-341
-268
-145
-88
-135
-216
-253
-234
-194
-148
-111
-93
-123
-200
-282
-323
-317
-294
-291
-315
-346
-344
-281
-192
-138
-145
-154
-111
-37
-18
-74
-121
-79
12
23
-82
-189
-157
-12
81
13
-145
-224
-152
-28
10
-63
-136
-116
-37
8
-21
-66
-48
13
39
-64
-162
-242
-239
-157
-56
-3
-19
-65
-68
-7
-78
-103
-78
-56
-68
-84
-70
-30
-14
-7
69
92
46
-20
-39
-9
0
-75
-190
-215
-95
78
149
64
-67
-98
-7
101
126
70
1
-31
-33
-24
-3
35
71
79
55
22
9
6
-1
-11
1
45
90
91
43
-4
8
68
95
27
-99
-185
-190
-139
-96
-66
-14
60
106
87
50
65
132
180
157
105
106
182
275
327
334
327
322
303
263
222
229
302
393
424
358
253
214
278
356
342
244
175
184
206
144
37
8
93
176
125
-43
-196
-231
-178
-125
-121
-137
-130
-83
-14
21
-26
-132
-212
-193
-108
-68
-137
-252
-286
-207
-96
-53
-70
-99
-109
-118
-136
-147
-125
-87
-67
-77
-104
-131
-138
-109
-45
41
147
337
703
1259
1894
2500
3099
3798
4614
5389
5920
6157
6185
6058
5712
5076
4204
3248
2331
1484
723
90
-357
-616
-716
-680
-530
-342
-226
-228
-298
-361
-400
-463
-571
-678
-737
-742
-730
-734
-744
-720
-661
-612
-615
-666
-731
-782
-800
-771
-689
-589
-544
-589
-666
-688
-618
-514
-449
-432
-421
-387
-344
-307
-275
-256
-290
-376
-425
-343
-174
-88
-193
-360
-362
-148
79
92
-82
-198
287
309
280
222
206
231
229
197
220
364
-110
60
96
-12
-70
49
255
365
337
282
564
685
683
651
689
795
887
894
828
757
745
810
917
1004
1029
1025
1071
1197
1412
1416
1431
1617
1642
1578
1509
1518
1600
1680
1706
1681
1626
1569
1551
1622
1754
1837
1786
1640
1533
1542
1598
1581
1478
1373
1313
1252
1122
935
785
729
727
691
585
437
302
213
172
140
45
-169
-455
-676
-730
-671
-659
-783
-957
-1028
-960
-873
-886
-973
-1017
-973
-933
-1014
-1203
-1341
-1296
-1122
-1029
-1156
-1398
-1502
-1347
-1089
-974
-1061
-1165
-1114
-973
-947
-1085
-1195
-1102
-888
-797
-935
-1132
-1141
-940
-730
-684
-768
-821
-776
-709
-722
-800
-842
-805
-744
-742
-807
-887
-923
-891
-781
-611
-453
-388
-433
-510
-519
-447
-392
-443
-580
-691
-708
-664
-621
-587
-522
-414
-317
-299
-336
-340
-258
-159
-169
-303
-442
-454
-350
-273
-315
-420
-466
-421
-370
-391
-445
-430
-323
-211
-197
-283
-378
-402
-354
-280
-225
-208
-242
-323
-414
-451
-398
-299
-229
-229
-258
-281
-299
-326
-323
-239
-116
-85
-212
-389
-424
-270
-91
-70
-205
-325
-300
-185
-127
-175
-261
-305
-311
-319
-345
-366
-371
-375
-389
-380
-324
-243
-189
-185
-194
-195
-196
-206
-212
-202
-200
-241
-306
-312
-209
-67
-8
-66
-153
-157
-86
-44
-96
-195
-252
-244
-222
-212
-177
-101
-43
-68
-148
-175
-103
-2
8
-92
-194
-193
-100
-32
-68
-173
-240
-195
-81
-23
-100
-243
-297
-188
-10
77
21
-57
-39
50
79
-11
-128
-153
-101
-87
-173
-280
-292
-195
-87
-57
-82
-80
-18
56
76
33
-18
-44
-59
-77
-78
-38
3
-36
-166
-272
-231
-58
85
67
-70
-149
-76
80
175
150
78
29
-3
-52
-94
-95
-47
1
17
6
0
53
74
84
51
6
-3
26
56
59
47
19
64
117
155
150
78
-38
-134
-164
-142
-113
-90
-43
44
126
150
121
89
94
98
57
-7
-33
-4
13
-33
-89
-59
61
154
121
3
-77
-61
-18
-29
-79
-79
16
144
210
185
124
104
150
214
232
174
72
-4
-13
20
45
39
39
96
205
312
354
342
340
388
458
478
415
310
219
153
89
29
9
44
89
73
-5
-75
-69
7
73
61
-5
-58
-56
-29
-35
-93
-163
-190
-171
-142
-134
-138
-138
-143
-173
-205
-198
-142
-90
-110
-119
-197
-225
-200
-156
-123
-84
6
205
540
-181
-226
-196
-130
-104
-128
-145
-112
-58
-55
1000
1531
2094
2711
3423
4222
4991
5593
5983
6199
6252
6074
5592
4828
3889
2894
1932
1066
345
-211
-615
-855
-893
-752
-534
-369
-299
-286
-297
-358
-488
-651
-781
-867
-954
-1054
-1105
-1047
-899
-750
-686
-722
-804
-832
-743
-591
-497
-547
-680
-762
-731
-645
-599
-594
-566
-511
-494
-545
-601
-587
-520
-504
-578
-648
-593
-426
-285
-281
-376
-439
-385
-264
-190
-210
-266
-270
-198
-83
17
74
86
64
27
-4
-11
1
13
18
99
183
225
182
242
387
498
475
363
314
404
534
565
493
451
537
674
721
664
644
759
935
1019
987
961
1044
1176
1215
1140
1097
1208
1402
1493
1426
1347
1414
1584
1666
1564
1414
1424
1614
1776
1734
1556
1475
1595
1761
1755
1575
1429
1462
1548
1477
1237
1038
1036
1129
1100
903
697
606
576
485
335
219
159
65
-117
-311
-424
-483
-586
-747
-865
-878
-867
-947
-1117
-1235
-1211
-1116
-1085
-1144
-1205
-1193
-1151
-1169
-1252
-1297
-1241
-1140
-1105
-1160
-1227
-1237
-1197
-1169
-1160
-1132
-1083
-1062
-1101
-1158
-1150
-1062
-965
-954
-1021
-1077
-1042
-931
-837
-848
-952
-1034
-994
-855
-745
-753
-828
-840
-735
-611
-600
-697
-773
-730
-627
-599
-685
-788
-777
-655
-513
-432
-419
-447
-505
-580
-622
-599
-537
-515
-556
-610
-603
-516
-396
-300
-259
-277
-338
-395
-408
-390
-393
-438
-475
-433
-329
-264
-310
-413
-444
-355
-244
-253
-379
-492
-472
-357
-278
-311
-391
-408
-338
-259
-243
-282
-318
-316
-286
-256
-243
-251
-275
-305
-341
-395
-455
-475
-417
-309
-254
-305
-394
-397
-289
-178
-187
-311
-426
-434
-349
-269
-269
-345
-421
-424
-333
-206
-212
-276
-320
-309
-280
-287
-330
-347
-312
-265
-143
-188
-286
-337
-306
-239
-197
-186
-180
-178
-254
-252
-207
-112
-30
-24
-78
-141
-187
-224
-260
-279
-267
-240
-229
-243
-258
-234
-164
-97
-92
-151
-211
-205
-148
-126
-197
-306
-349
-280
-171
-113
-135
-181
-175
-106
-13
49
39
-34
-122
-175
-179
-167
-187
-250
-312
-314
-220
-79
-204
-52
8
-46
-120
-111
-36
4
-51
-153
-187
-111
17
82
35
-54
-75
13
147
207
5
-34
-158
-235
-175
-40
19
-77
-240
-302
139
3
-72
-13
115
175
107
-5
-18
112
262
274
107
-104
-182
-80
91
171
109
-16
-83
-38
68
133
106
22
-33
-11
43
45
-12
-41
40
174
217
99
-72
-130
-51
26
-14
-118
-141
-28
129
204
181
135
109
96
71
39
16
-7
-39
-50
-6
75
126
114
98
151
267
347
323
248
220
264
303
281
240
249
297
292
206
127
132
180
161
50
-60
-84
-54
-74
-155
-185
-91
42
55
-100
-294
-349
-232
-80
-55
-174
-302
-294
-150
-11
-8
-128
-231
-221
-147
-137
-235
-337
-321
-196
-91
-94
-156
-152
-69
-15
-63
-174
-251
-276
-300
-327
-312
-239
-152
-61
146
616
1324
2065
2686
3244
3899
4663
5346
5738
5811
5679
5417
4983
4323
3473
2556
1693
948
342
-128
-485
-751
-910
-915
-754
-523
-368
-351
-419
-475
-493
-519
-571
-618
-644
-685
-760
-818
-793
-702
-648
-691
-779
-804
-748
-688
-692
-716
-684
-601
-547
-572
-622
-609
-523
-447
-449
-514
-562
-541
-474
-417
-389
-364
-337
-326
-356
-404
-405
-332
-232
-200
-237
-219
16
142
213
224
186
139
122
140
141
107
80
112
183
204
143
86
156
322
417
334
176
148
309
508
562
490
463
580
763
860
821
749
750
828
897
911
904
936
1019
1117
1199
1266
1330
1385
1420
1436
1451
1465
1467
1444
1418
1428
1498
1601
1679
1678
1593
1498
1485
1579
1678
1668
1556
1467
1506
1612
1635
1514
1341
1236
1207
1159
1018
818
631
497
405
333
272
193
69
-94
-254
-379
-476
-571
-671
-760
-823
-872
-935
-1017
-1097
-1141
-1158
-1174
-1207
-1236
-1249
-1164
-1153
-1230
-1250
-1152
-1055
-1111
-1272
-1332
-1192
-1261
-1299
-1325
-1283
-1181
-1115
-1172
-1304
-1364
-1283
-1000
-968
-1103
-1217
-1176
-1052
-992
-1021
-1035
-991
-950
-956
-948
-869
-773
-771
-854
-885
-767
-601
-555
-656
-776
-794
-726
-665
-640
-615
-578
-568
-597
-603
-542
-476
-505
-615
-672
-591
-456
-421
-501
-564
-502
-379
-328
-385
-463
-490
-498
-540
-575
-533
-427
-352
-350
-354
-309
-258
-280
-357
-391
-346
-313
-379
-504
-558
-485
-349
-265
-264
-303
-334
-342
-328
-293
-254
-247
-284
-317
-302
-249
-222
-268
-354
-394
-346
-262
-229
-274
-336
-347
-312
-302
-344
-390
-382
-325
-285
-309
-350
-316
-185
-122
-212
-355
-383
-255
-113
-122
-279
-338
-267
-210
-219
-261
-271
-249
-262
-330
-376
-408
-366
-189
-44
-52
-164
-237
-194
-100
-70
-148
-255
-289
-252
-228
-267
-319
-288
-178
-99
-132
-233
-280
-220
-127
-98
-141
-180
-158
-104
-71
-68
-65
-49
-35
-40
-59
-91
-144
-206
-241
-232
-213
-216
-221
-177
-101
-69
-127
-198
-165
-25
88
66
-53
-131
-106
-50
-56
-119
-160
-149
-140
-180
-231
-221
-136
-57
-60
-117
-136
-93
-66
-134
-259
-309
-216
-64
-2
-65
-154
-157
-73
17
55
57
53
40
7
-15
15
87
121
61
-39
-69
13
121
153
115
99
168
291
379
403
397
383
341
249
142
33
33
-3
-91
-206
-286
-286
-220
-167
-189
75
69
78
56
3
-42
-59
-46
-17
13
-253
-296
-293
-270
-258
-260
-269
-286
-303
-288
-204
-90
-37
-82
-155
-157
-81
-25
-73
-186
-259
-245
-184
-132
-106
-99
-109
-143
-184
-191
-158
-121
-86
27
316
777
1318
1861
2460
3202
4060
4871
5479
5855
6031
6000
5720
5184
4470
3648
2721
1715
776
104
-255
-456
-676
-894
-942
-760
-496
-359
-396
-478
-483
-433
-423
-499
-607
-681
-714
-742
-794
-854
-864
-800
-699
-660
-734
-852
-888
-779
-614
-550
-645
-808
-909
-891
-804
-726
-695
-687
-653
-573
-477
-421
-423
-425
-364
-255
-194
-251
-381
-477
-477
-404
-320
-276
-281
-297
-259
-130
37
124
74
-32
-70
-9
62
68
37
51
120
206
272
324
366
371
337
307
315
338
314
254
254
390
603
726
478
396
530
977
967
835
747
800
947
1078
1123
